2,,
Time (min),Intensity (a.u.),
0.004166666884,3.552472353,
0.01250000019,3.562108755,
0.02083333395,3.603908777,
0.02916666679,3.58618021,
0.03750000149,3.625026464,
0.04583333433,3.619354725,
0.05416666716,3.656775713,
0.0625,3.640593529,
0.07083333284,3.629723787,
0.07916666567,3.603416443,
0.08749999851,3.635491848,
0.09583333135,3.620687246,
0.1041666642,3.649485111,
0.112499997,3.654632807,
0.1208333299,3.687042236,
0.1291666627,3.65708065,
0.137500003,3.574530125,
0.1458333284,3.573131561,
0.1541666687,3.596522093,
0.162499994,3.607934713,
0.1708333343,3.65755105,
0.1791666597,3.653313875,
0.1875,3.593969345,
0.1958333403,3.665674448,
0.2041666657,3.620253325,
0.212500006,3.563716888,
0.2208333313,3.622667074,
0.2291666716,3.619156361,
0.237499997,3.582530737,
0.2458333373,3.548772573,
0.2541666627,3.626547813,
0.2624999881,3.574109316,
0.2708333433,3.620860577,
0.2791666687,3.566275358,
0.287499994,3.63458252,
0.2958333194,3.597515821,
0.3041666746,3.633737326,
0.3125,3.632463455,
0.3208333254,3.648725748,
0.3291666806,3.612483501,
0.337500006,3.596053839,
0.3458333313,3.673929214,
0.3541666567,3.650696039,
0.3625000119,3.613912821,
0.3708333373,3.61259985,
0.3791666627,3.579701662,
0.3874999881,3.621322632,
0.3958333433,3.562541246,
0.4041666687,3.626991749,
0.412499994,3.629692078,
0.4208333194,3.633129597,
0.4291666746,3.630545139,
0.4375,3.666091681,
0.4458333254,3.663707018,
0.4541666806,3.622202873,
0.462500006,3.584754705,
0.4708333313,3.611363649,
0.4791666567,3.654198885,
0.4875000119,3.656434774,
0.4958333373,3.580991745,
0.5041666627,3.566075087,
0.5124999881,3.535037279,
0.5208333135,3.643046856,
0.5291666389,3.685903311,
0.5375000238,3.609734058,
0.5458333492,3.632151842,
0.5541666746,3.593893051,
0.5625,3.569622278,
0.5708333254,3.589346886,
0.5791666508,3.597986698,
0.5874999762,3.475280285,
0.5958333611,3.582486153,
0.6041666865,3.655134916,
0.6125000119,3.614715099,
0.6208333373,3.600888491,
0.6291666627,3.566520691,
0.6374999881,3.578809261,
0.6458333135,3.629163265,
0.6541666389,3.600891113,
0.6625000238,3.614878654,
0.6708333492,3.581417799,
0.6791666746,3.563143969,
0.6875,3.627959251,
0.6958333254,3.557469845,
0.7041666508,3.587241411,
0.7124999762,3.551290274,
0.7208333611,3.567396879,
0.7291666865,3.612010002,
0.7375000119,3.545763493,
0.7458333373,3.565590858,
0.7541666627,3.576958656,
0.7624999881,3.565722942,
0.7708333135,3.566043615,
0.7791666389,3.610022545,
0.7875000238,3.625485182,
0.7958333492,3.618607759,
0.8041666746,3.588665247,
0.8125,3.571154118,
0.8208333254,3.536365747,
0.8291666508,3.609651804,
0.8374999762,3.581974268,
0.8458333611,3.641030312,
0.8541666865,3.621802092,
0.8625000119,3.552841902,
0.8708333373,3.56897068,
0.8791666627,3.585318089,
0.8874999881,3.593973398,
0.8958333135,3.535110474,
0.9041666389,3.551298141,
0.9125000238,3.588406324,
0.9208333492,3.574866295,
0.9291666746,3.617923975,
0.9375,3.584496021,
0.9458333254,3.546175241,
0.9541666508,3.559557915,
0.9624999762,3.602625847,
0.9708333611,3.5612216,
0.9791666865,3.617935181,
0.9875000119,3.640503645,
0.9958333373,3.585944891,
1.004166722,3.655617476,
1.012500048,3.546472788,
1.020833373,3.616959095,
1.029166698,3.593552589,
1.037500024,3.647372007,
1.045833349,3.585906029,
1.054166675,3.578427792,
1.0625,3.530050516,
1.070833325,3.608484507,
1.079166651,3.596869469,
1.087499976,3.564896822,
1.095833302,3.563789368,
1.104166627,3.497378588,
1.112499952,3.617002487,
1.120833278,3.56805563,
1.129166722,3.585249662,
1.137500048,3.540307045,
1.145833373,3.566464663,
1.154166698,3.591577053,
1.162500024,3.59597373,
1.170833349,3.56231761,
1.179166675,3.595915079,
1.1875,3.533385277,
1.195833325,3.590777874,
1.204166651,3.567151546,
1.212499976,3.547612906,
1.220833302,3.594914436,
1.229166627,3.582132816,
1.237499952,3.538072586,
1.245833278,3.508481741,
1.254166722,3.57854867,
1.262500048,3.62458539,
1.270833373,3.542646885,
1.279166698,3.557851791,
1.287500024,3.619137049,
1.295833349,3.554864645,
1.304166675,3.540995836,
1.3125,3.54178834,
1.320833325,3.562700987,
1.329166651,3.567575693,
1.337499976,3.573987722,
1.345833302,3.629749775,
1.354166627,3.520176172,
1.362499952,3.566422462,
1.370833278,3.51410079,
1.379166722,3.541104555,
1.387500048,3.527469873,
1.395833373,3.615181446,
1.404166698,3.596782446,
1.412500024,3.55716753,
1.420833349,3.581141472,
1.429166675,3.564888239,
1.4375,3.569399118,
1.445833325,3.572993755,
1.454166651,3.525296926,
1.462499976,3.549342394,
1.470833302,3.578396797,
1.479166627,3.59499383,
1.487499952,3.527296305,
1.495833278,3.540510178,
1.504166722,3.524684906,
1.512500048,3.607141495,
1.520833373,3.578953743,
1.529166698,3.564421654,
1.537500024,3.523080349,
1.545833349,3.531608343,
1.554166675,3.535561562,
1.5625,3.560649395,
1.570833325,3.592931986,
1.579166651,3.546041965,
1.587499976,3.533344984,
1.595833302,3.660200357,
1.604166627,3.599375486,
1.612499952,3.58946085,
1.620833278,3.600009441,
1.629166722,3.56626153,
1.637500048,3.600472212,
1.645833373,3.564330816,
1.654166698,3.585752964,
1.662500024,3.549030304,
1.670833349,3.574217081,
1.679166675,3.571983337,
1.6875,3.548550606,
1.695833325,3.517150402,
1.704166651,3.572126865,
1.712499976,3.592488527,
1.720833302,3.568172455,
1.729166627,3.548705578,
1.737499952,3.564883947,
1.745833278,3.564958334,
1.754166722,3.512193203,
1.762500048,3.550995827,
1.770833373,3.594981194,
1.779166698,3.552474022,
1.787500024,3.60816431,
1.795833349,3.54211235,
1.804166675,3.596135139,
1.8125,3.532918453,
1.820833325,3.620077372,
1.829166651,3.57725811,
1.837499976,3.535936356,
1.845833302,3.553702116,
1.854166627,3.53171277,
1.862499952,3.521052122,
1.870833278,3.547794342,
1.879166722,3.519325256,
1.887500048,3.54841876,
1.895833373,3.614561081,
1.904166698,3.552751064,
1.912500024,3.592390299,
1.920833349,3.574459076,
1.929166675,3.616410732,
1.9375,3.616384029,
1.945833325,3.570325851,
1.954166651,3.646332264,
1.962499976,3.568974018,
1.970833302,3.586410284,
1.979166627,3.596888542,
1.987499952,3.501642704,
1.995833278,3.542984009,
2.004166603,3.533934593,
2.012500048,3.501652479,
2.020833254,3.576840162,
2.029166698,3.624598265,
2.037499905,3.579706192,
2.045833349,3.576898575,
2.054166555,3.534122944,
2.0625,3.558006763,
2.070833445,3.533098936,
2.079166651,3.544706345,
2.087500095,3.547366381,
2.095833302,3.57153511,
2.104166746,3.551370144,
2.112499952,3.546268225,
2.120833397,3.590260983,
2.129166603,3.563533783,
2.137500048,3.567480564,
2.145833254,3.525057316,
2.154166698,3.584303379,
2.162499905,3.604541779,
2.170833349,3.495252132,
2.179166555,3.593552828,
2.1875,3.589330435,
2.195833445,3.53221035,
2.204166651,3.597500086,
2.212500095,3.579617977,
2.220833302,3.622613907,
2.229166746,3.554426432,
2.237499952,3.546967983,
2.245833397,3.619255781,
2.254166603,3.536991835,
2.262500048,3.538143635,
2.270833254,3.50970006,
2.279166698,3.517647982,
2.287499905,3.56543541,
2.295833349,3.555598736,
2.304166555,3.566284657,
2.3125,3.625825644,
2.320833445,3.49686265,
2.329166651,3.527623892,
2.337500095,3.551701546,
2.345833302,3.497751474,
2.354166746,3.555408478,
2.362499952,3.577292442,
2.370833397,3.532833576,
2.379166603,3.562369347,
2.387500048,3.60656929,
2.395833254,3.603163719,
2.404166698,3.538955688,
2.412499905,3.544941425,
2.420833349,3.546414137,
2.429166555,3.579873323,
2.4375,3.578305721,
2.445833445,3.550828934,
2.454166651,3.512046576,
2.462500095,3.606189489,
2.470833302,3.532927513,
2.479166746,3.520055532,
2.487499952,3.504232168,
2.495833397,3.367380857,
2.504166603,3.304915905,
2.512500048,3.706165791,
2.520833254,4.380119801,
2.529166698,4.277727604,
2.537499905,4.34408617,
2.545833349,3.538828373,
2.554166555,3.561375856,
2.5625,3.518686533,
2.570833445,3.523941517,
2.579166651,3.504096031,
2.587500095,3.588708639,
2.595833302,3.572308064,
2.604166746,3.632116795,
2.612499952,3.634686232,
2.620833397,3.610553503,
2.629166603,3.629957676,
2.637500048,3.687946558,
2.645833254,3.69406414,
2.654166698,3.662555933,
2.662499905,3.677232504,
2.670833349,3.64499712,
2.679166555,3.719434738,
2.6875,3.75530982,
2.695833445,3.739536762,
2.704166651,3.702621698,
2.712500095,3.645424843,
2.720833302,3.722608328,
2.729166746,3.704761267,
2.737499952,3.73955822,
2.745833397,3.702165842,
2.754166603,3.756643295,
2.762500048,3.769127369,
2.770833254,3.799980879,
2.779166698,3.80359292,
2.787499905,3.845796824,
2.795833349,3.895901203,
2.804166555,3.813021421,
2.8125,3.816162586,
2.820833445,3.891700983,
2.829166651,3.857594013,
2.837500095,3.908294678,
2.845833302,3.828989744,
2.854166746,3.896517992,
2.862499952,3.864596605,
2.870833397,3.906933069,
2.879166603,3.903578043,
2.887500048,3.880684853,
2.895833254,3.916447401,
2.904166698,3.945535421,
2.912499905,3.888356924,
2.920833349,3.968314648,
2.929166555,3.946342468,
2.9375,3.990747452,
2.945833445,3.945188522,
2.954166651,3.937630892,
2.962500095,3.942861795,
2.970833302,3.993586063,
2.979166746,3.941529512,
2.987499952,4.008023262,
2.995833397,4.055566311,
3.004166603,3.971503973,
3.012500048,3.996078491,
3.020833254,4.006390572,
3.029166698,3.995923758,
3.037499905,4.003686428,
3.045833349,4.001710892,
3.054166555,4.054210186,
3.0625,4.020454407,
3.070833445,4.050539494,
3.079166651,4.070729733,
3.087500095,4.007965088,
3.095833302,4.083403111,
3.104166746,4.043631077,
3.112499952,4.071843147,
3.120833397,3.983189821,
3.129166603,4.117240429,
3.137500048,4.113458157,
3.145833254,4.100590706,
3.154166698,4.103467464,
3.162499905,4.074510098,
3.170833349,4.089948177,
3.179166555,4.136062145,
3.1875,4.116919994,
3.195833445,4.116531372,
3.204166651,4.079658985,
3.212500095,4.096540928,
3.220833302,4.074728489,
3.229166746,4.091883659,
3.237499952,4.106863022,
3.245833397,4.122634888,
3.254166603,4.078708649,
3.262500048,4.233734608,
3.270833254,4.117656708,
3.279166698,4.113172531,
3.287499905,4.124238491,
3.295833349,4.191521168,
3.304166555,4.163437366,
3.3125,4.118257046,
3.320833445,4.142189026,
3.329166651,4.184717655,
3.337500095,4.137634754,
3.345833302,4.164250374,
3.354166746,4.182349205,
3.362499952,4.143828869,
3.370833397,4.158557892,
3.379166603,4.175592899,
3.387500048,4.099061012,
3.395833254,4.128951073,
3.404166698,4.104496956,
3.412499905,4.16932869,
3.420833349,4.194329739,
3.429166555,4.202803135,
3.4375,4.176819324,
3.445833445,4.190645695,
3.454166651,4.2391119,
3.462500095,4.232158184,
3.470833302,4.223116398,
3.479166746,4.186002731,
3.487499952,4.238354206,
3.495833397,4.168834209,
3.504166603,4.190581799,
3.512500048,4.180280685,
3.520833254,4.17364645,
3.529166698,4.199972153,
3.537499905,4.247531891,
3.545833349,4.206529617,
3.554166555,4.273812294,
3.5625,4.23952198,
3.570833445,4.126841068,
3.579166651,4.263133049,
3.587500095,4.245398998,
3.595833302,4.206661224,
3.604166746,4.194189072,
3.612499952,4.272939682,
3.620833397,4.228104115,
3.629166603,4.178076744,
3.637500048,4.248888016,
3.645833254,4.221386433,
3.654166698,4.20036602,
3.662499905,4.250324726,
3.670833349,4.196892738,
3.679166555,4.261988163,
3.6875,4.275062561,
3.695833445,4.215053558,
3.704166651,4.244886398,
3.712500095,4.257611275,
3.720833302,4.28826952,
3.729166746,4.238501072,
3.737499952,4.238488197,
3.745833397,4.266179562,
3.754166603,4.290455341,
3.762500048,4.236624718,
3.770833254,4.283401012,
3.779166698,4.244897366,
3.787499905,4.304349422,
3.795833349,4.289074898,
3.804166555,4.245625973,
3.8125,4.335474968,
3.820833445,4.258178711,
3.829166651,4.231788635,
3.837500095,4.305817604,
3.845833302,4.279612064,
3.854166746,4.291666031,
3.862499952,4.272859097,
3.870833397,4.282514095,
3.879166603,4.299319744,
3.887500048,4.326840878,
3.895833254,4.271437645,
3.904166698,4.311654568,
3.912499905,4.263299942,
3.920833349,4.25925827,
3.929166555,4.291594028,
3.9375,4.288916111,
3.945833445,4.278238297,
3.954166651,4.355644226,
3.962500095,4.246003151,
3.970833302,4.280151844,
3.979166746,4.315746307,
3.987499952,4.267431259,
3.995833397,4.299123287,
4.004166603,4.304860115,
4.012499809,4.303807259,
4.020833492,4.301902771,
4.029166698,4.283764839,
4.037499905,4.25743866,
4.045833111,4.241092205,
4.054166794,4.298951626,
4.0625,4.27922821,
4.070833206,4.269028187,
4.079166889,4.242534161,
4.087500095,4.302694321,
4.095833302,4.347808838,
4.104166508,4.328720093,
4.112500191,4.322650433,
4.120833397,4.327861786,
4.129166603,4.324952602,
4.137499809,4.360387802,
4.145833492,4.356767654,
4.154166698,4.355177402,
4.162499905,4.358639717,
4.170833111,4.362323284,
4.179166794,4.335674286,
4.1875,4.316051006,
4.195833206,4.366917133,
4.204166889,4.350591183,
4.212500095,4.319955826,
4.220833302,4.339062691,
4.229166508,4.329623699,
4.237500191,4.309239388,
4.245833397,4.376624584,
4.254166603,4.362338543,
4.262499809,4.360993862,
4.270833492,4.319159985,
4.279166698,4.387365818,
4.287499905,4.3850317,
4.295833111,4.326711655,
4.304166794,4.343057156,
4.3125,4.31519556,
4.320833206,4.380853653,
4.329166889,4.320288181,
4.337500095,4.33172369,
4.345833302,4.363494396,
4.354166508,4.363946915,
4.362500191,4.307280064,
4.370833397,4.321217537,
4.379166603,4.346781254,
4.387499809,4.337600708,
4.395833492,4.364063263,
4.404166698,4.402778625,
4.412499905,4.420725346,
4.420833111,4.385268688,
4.429166794,4.381136417,
4.4375,4.312001228,
4.445833206,4.374526024,
4.454166889,4.349325657,
4.462500095,4.373622417,
4.470833302,4.3913517,
4.479166508,4.411039829,
4.487500191,4.359925747,
4.495833397,4.436926365,
4.504166603,4.411305904,
4.512499809,4.414111137,
4.520833492,4.365341187,
4.529166698,4.412596226,
4.537499905,4.358743191,
4.545833111,4.399990559,
4.554166794,4.27013731,
4.5625,4.402241707,
4.570833206,4.337613106,
4.579166889,4.435359955,
4.587500095,4.389740944,
4.595833302,4.43117094,
4.604166508,4.3926754,
4.612500191,4.341092587,
4.620833397,4.347808361,
4.629166603,4.368588448,
4.637499809,4.373950005,
4.645833492,4.333130836,
4.654166698,4.34769249,
4.662499905,4.384811878,
4.670833111,4.416991234,
4.679166794,4.41122818,
4.6875,4.368360043,
4.695833206,4.333076,
4.704166889,4.378348351,
4.712500095,4.36057663,
4.720833302,4.389453411,
4.729166508,4.352365494,
4.737500191,4.400754452,
4.745833397,4.437717438,
4.754166603,4.403561592,
4.762499809,4.397468567,
4.770833492,4.360685349,
4.779166698,4.372891426,
4.787499905,4.341264725,
4.795833111,4.391639233,
4.804166794,4.427620888,
4.8125,4.421060085,
4.820833206,4.395721912,
4.829166889,4.389480591,
4.837500095,4.387372494,
4.845833302,4.418128014,
4.854166508,4.381055832,
4.862500191,4.405888081,
4.870833397,4.431637764,
4.879166603,4.390410423,
4.887499809,4.388992786,
4.895833492,4.427750111,
4.904166698,4.422729969,
4.912499905,4.373415947,
4.920833111,4.438578606,
4.929166794,4.402654648,
4.9375,4.401085854,
4.945833206,4.341969967,
4.954166889,4.386985779,
4.962500095,4.36680603,
4.970833302,4.43056488,
4.979166508,4.408170223,
4.987500191,4.465164185,
4.995833397,4.414596558,
5.004166603,4.395353317,
5.012499809,4.408391476,
5.020833492,4.351797581,
5.029166698,4.462658882,
5.037499905,4.455341339,
5.045833111,4.459703445,
5.054166794,4.42137289,
5.0625,4.368026733,
5.070833206,4.355201244,
5.079166889,4.432991028,
5.087500095,4.390267849,
5.095833302,4.421221256,
5.104166508,4.433576107,
5.112500191,4.390540123,
5.120833397,4.441365242,
5.129166603,4.462315083,
5.137499809,4.405955791,
5.145833492,4.412747383,
5.154166698,4.40245676,
5.162499905,4.416910172,
5.170833111,4.431661129,
5.179166794,4.392935276,
5.1875,4.459367275,
5.195833206,4.400269508,
5.204166889,4.430046558,
5.212500095,4.406055927,
5.220833302,4.440950394,
5.229166508,4.415101051,
5.237500191,4.484372139,
5.245833397,4.441971302,
5.254166603,4.37433672,
5.262499809,4.420984745,
5.270833492,4.429936409,
5.279166698,4.445531368,
5.287499905,4.36984539,
5.295833111,4.457036495,
5.304166794,4.383940697,
5.3125,4.488353729,
5.320833206,4.40376997,
5.329166889,4.411458015,
5.337500095,4.392106056,
5.345833302,4.40062809,
5.354166508,4.427463055,
5.362500191,4.4414711,
5.370833397,4.404803276,
5.379166603,4.468668938,
5.387499809,4.452590466,
5.395833492,4.404442787,
5.404166698,4.373517513,
5.412499905,4.52048111,
5.420833111,4.379283905,
5.429166794,4.363936901,
5.4375,4.465322971,
5.445833206,4.421730042,
5.454166889,4.382884979,
5.462500095,4.423030376,
5.470833302,4.424016476,
5.479166508,4.453291416,
5.487500191,4.437169075,
5.495833397,4.467212677,
5.504166603,4.441824913,
5.512499809,4.454285622,
5.520833492,4.500765324,
5.529166698,4.395581722,
5.537499905,4.448512554,
5.545833111,4.462005615,
5.554166794,4.431321621,
5.5625,4.442189217,
5.570833206,4.478643894,
5.579166889,4.419310093,
5.587500095,4.478486061,
5.595833302,4.416337013,
5.604166508,4.499629498,
5.612500191,4.383854866,
5.620833397,4.446376324,
5.629166603,4.484001637,
5.637499809,4.396398067,
5.645833492,4.424188137,
5.654166698,4.45483923,
5.662499905,4.420078278,
5.670833111,4.510185719,
5.679166794,4.482198238,
5.6875,4.479972839,
5.695833206,4.430119038,
5.704166889,4.493708134,
5.712500095,4.436474323,
5.720833302,4.405602932,
5.729166508,4.468671799,
5.737500191,4.428519726,
5.745833397,4.44742012,
5.754166603,4.430405617,
5.762499809,4.43503952,
5.770833492,4.458716869,
5.779166698,4.375480175,
5.787499905,4.423115253,
5.795833111,4.409852982,
5.804166794,4.45234108,
5.8125,4.538578033,
5.820833206,4.444153786,
5.829166889,4.430855751,
5.837500095,4.377453327,
5.845833302,4.439427853,
5.854166508,4.389825344,
5.862500191,4.465931416,
5.870833397,4.357045174,
5.879166603,4.483004093,
5.887499809,4.485267639,
5.895833492,4.42911768,
5.904166698,4.431201458,
5.912499905,4.469325542,
5.920833111,4.411743164,
5.929166794,4.454113007,
5.9375,4.456124306,
5.945833206,4.557377815,
5.954166889,4.430181026,
5.962500095,4.410720825,
5.970833302,4.432760239,
5.979166508,4.504105091,
5.987500191,4.562325001,
5.995833397,4.443657398,
6.004166603,4.518523216,
6.012499809,4.489413738,
6.020833492,4.499144554,
6.029166698,4.439253807,
6.037499905,4.481339931,
6.045833111,4.465545177,
6.054166794,4.367830276,
6.0625,4.472574711,
6.070833206,4.429849148,
6.079166889,4.476212025,
6.087500095,4.434653759,
6.095833302,4.484724045,
6.104166508,4.447493076,
6.112500191,4.407009125,
6.120833397,4.446103096,
6.129166603,4.4441576,
6.137499809,4.466594696,
6.145833492,4.426769257,
6.154166698,4.460263729,
6.162499905,4.5023036,
6.170833111,4.429151535,
6.179166794,4.479292393,
6.1875,4.478502274,
6.195833206,4.454628944,
6.204166889,4.40039587,
6.212500095,4.509717941,
6.220833302,4.473889828,
6.229166508,4.370375156,
6.237500191,4.422535419,
6.245833397,4.478814602,
6.254166603,4.435101032,
6.262499809,4.464874268,
6.270833492,4.533094883,
6.279166698,4.413156986,
6.287499905,4.465951443,
6.295833111,4.507357121,
6.304166794,4.44195652,
6.3125,4.455456734,
6.320833206,4.490077019,
6.329166889,4.485144615,
6.337500095,4.470445156,
6.345833302,4.478452682,
6.354166508,4.411352158,
6.362500191,4.434009552,
6.370833397,4.476503849,
6.379166603,4.428850174,
6.387499809,4.538510799,
6.395833492,4.430113792,
6.404166698,4.479002953,
6.412499905,4.432742119,
6.420833111,4.486553669,
6.429166794,4.475380898,
6.4375,4.452528954,
6.445833206,4.446015835,
6.454166889,4.447402954,
6.462500095,4.536712646,
6.470833302,4.502349854,
6.479166508,4.465502262,
6.487500191,4.504421711,
6.495833397,4.420875549,
6.504166603,4.498886585,
6.512499809,4.419639587,
6.520833492,4.496209145,
6.529166698,4.582268715,
6.537499905,4.441999435,
6.545833111,4.460961819,
6.554166794,4.423933983,
6.5625,4.49233532,
6.570833206,4.442185402,
6.579166889,4.428863525,
6.587500095,4.523433685,
6.595833302,4.514161587,
6.604166508,4.441278458,
6.612500191,4.515667915,
6.620833397,4.501554489,
6.629166603,4.465034008,
6.637499809,4.4758811,
6.645833492,4.452934742,
6.654166698,4.50815773,
6.662499905,4.449165821,
6.670833111,4.480138779,
6.679166794,4.469267368,
6.6875,4.453250408,
6.695833206,4.475518703,
6.704166889,4.502962589,
6.712500095,4.466085434,
6.720833302,4.527067184,
6.729166508,4.474126339,
6.737500191,4.485103607,
6.745833397,4.499892235,
6.754166603,4.461692333,
6.762499809,4.435767174,
6.770833492,4.517330647,
6.779166698,4.473229408,
6.787499905,4.480481625,
6.795833111,4.482271671,
6.804166794,4.46300745,
6.8125,4.468619347,
6.820833206,4.499648571,
6.829166889,4.464560986,
6.837500095,4.475838184,
6.845833302,4.487454891,
6.854166508,4.50520134,
6.862500191,4.380547047,
6.870833397,4.515728951,
6.879166603,4.496632099,
6.887499809,4.517313004,
6.895833492,4.464809895,
6.904166698,4.463210106,
6.912499905,4.408797741,
6.920833111,4.510818005,
6.929166794,4.46492672,
6.9375,4.455343246,
6.945833206,4.521903992,
6.954166889,4.491623402,
6.962500095,4.48286581,
6.970833302,4.450865269,
6.979166508,4.51485014,
6.987500191,4.50238657,
6.995833397,4.487754822,
7.004166603,4.555249691,
7.012499809,4.475524426,
7.020833492,4.495909214,
7.029166698,4.521278381,
7.037499905,4.488438606,
7.045833111,4.452929974,
7.054166794,4.439147472,
7.0625,4.507014751,
7.070833206,4.47764349,
7.079166889,4.45539093,
7.087500095,4.506359577,
7.095833302,4.455611706,
7.104166508,4.484657764,
7.112500191,4.477331161,
7.120833397,4.521187782,
7.129166603,4.470324993,
7.137499809,4.490711689,
7.145833492,4.490878105,
7.154166698,4.477836132,
7.162499905,4.451122761,
7.170833111,4.514298439,
7.179166794,4.518528938,
7.1875,4.529026031,
7.195833206,4.485399246,
7.204166889,4.525579453,
7.212500095,4.447953224,
7.220833302,4.521615505,
7.229166508,4.415091515,
7.237500191,4.48180151,
7.245833397,4.56142664,
7.254166603,4.475070477,
7.262499809,4.436959267,
7.270833492,4.514967442,
7.279166698,4.534660339,
7.287499905,4.508674145,
7.295833111,4.502969742,
7.304166794,4.444169998,
7.3125,4.559743881,
7.320833206,4.518462658,
7.329166889,4.521233559,
7.337500095,4.48409462,
7.345833302,4.509650707,
7.354166508,4.465319633,
7.362500191,4.498654366,
7.370833397,4.435863495,
7.379166603,4.537817001,
7.387499809,4.516441822,
7.395833492,4.46173954,
7.404166698,4.417589664,
7.412499905,4.434483051,
7.420833111,4.521756649,
7.429166794,4.520623684,
7.4375,4.458481312,
7.445833206,4.494719028,
7.454166889,4.51990366,
7.462500095,4.53404665,
7.470833302,4.427205086,
7.479166508,4.509967327,
7.487500191,4.450381756,

