5,,
Time (min),Intensity (a.u.),
0.004166666884,178.1352386,
0.01250000019,178.1710663,
0.02083333395,176.9384308,
0.02916666679,177.4911194,
0.03750000149,179.3046112,
0.04583333433,179.4512024,
0.05416666716,180.592926,
0.0625,181.0340576,
0.07083333284,181.0738983,
0.07916666567,179.1817322,
0.08749999851,178.379364,
0.09583333135,179.3996735,
0.1041666642,178.8355255,
0.112499997,180.0219269,
0.1208333299,179.0267639,
0.1291666627,178.8363953,
0.137500003,180.6772614,
0.1458333284,179.0369568,
0.1541666687,178.4138184,
0.162499994,178.4396667,
0.1708333343,178.7124939,
0.1791666597,179.2969818,
0.1875,178.8038483,
0.1958333403,179.3108978,
0.2041666657,179.477951,
0.212500006,179.5543213,
0.2208333313,180.0337524,
0.2291666716,180.0334167,
0.237499997,178.1034546,
0.2458333373,178.1421661,
0.2541666627,178.1709595,
0.2624999881,178.2199249,
0.2708333433,179.5338898,
0.2791666687,180.5935516,
0.287499994,180.1937714,
0.2958333194,182.2993927,
0.3041666746,179.5652466,
0.3125,178.2837524,
0.3208333254,179.2113495,
0.3291666806,178.4059753,
0.337500006,179.0247803,
0.3458333313,178.7299652,
0.3541666567,179.2164459,
0.3625000119,179.8182526,
0.3708333373,178.6047363,
0.3791666627,179.2086029,
0.3874999881,180.1599426,
0.3958333433,178.8409576,
0.4041666687,178.7187653,
0.412499994,179.131424,
0.4208333194,178.5849152,
0.4291666746,177.9961395,
0.4375,178.6609039,
0.4458333254,179.6044617,
0.4541666806,179.1094208,
0.462500006,179.6274872,
0.4708333313,178.7297516,
0.4791666567,178.771347,
0.4875000119,178.8477173,
0.4958333373,180.2957916,
0.5041666627,178.6803284,
0.5124999881,179.1138458,
0.5208333135,179.8540802,
0.5291666389,178.6003723,
0.5375000238,179.3389893,
0.5458333492,178.8804474,
0.5541666746,179.3850861,
0.5625,179.4112091,
0.5708333254,178.8891449,
0.5791666508,178.5592499,
0.5874999762,177.9037323,
0.5958333611,178.8395538,
0.6041666865,179.0601501,
0.6125000119,179.6265411,
0.6208333373,178.8388062,
0.6291666627,178.9756012,
0.6374999881,179.4208069,
0.6458333135,178.0539093,
0.6541666389,179.5562744,
0.6625000238,179.356308,
0.6708333492,178.2969513,
0.6791666746,178.2062836,
0.6875,178.1181946,
0.6958333254,178.2181854,
0.7041666508,178.4334106,
0.7124999762,178.8107452,
0.7208333611,179.2895966,
0.7291666865,178.2789001,
0.7375000119,178.9830933,
0.7458333373,178.9461823,
0.7541666627,178.9901733,
0.7624999881,178.1695251,
0.7708333135,178.6858063,
0.7791666389,178.037384,
0.7875000238,178.9420013,
0.7958333492,178.888092,
0.8041666746,179.6995544,
0.8125,180.2518463,
0.8208333254,180.0401154,
0.8291666508,177.3808136,
0.8374999762,178.5161743,
0.8458333611,179.6646271,
0.8541666865,178.4490814,
0.8625000119,179.6344147,
0.8708333373,179.1433716,
0.8791666627,178.3560791,
0.8874999881,178.693573,
0.8958333135,179.0818787,
0.9041666389,178.8416595,
0.9125000238,178.3097076,
0.9208333492,178.9951477,
0.9291666746,177.6045227,
0.9375,178.7297211,
0.9458333254,177.9583435,
0.9541666508,178.1967926,
0.9624999762,180.2802887,
0.9708333611,179.7062683,
0.9791666865,178.9425201,
0.9875000119,178.6205292,
0.9958333373,178.9628143,
1.004166722,178.4321747,
1.012500048,178.7130127,
1.020833373,179.1211395,
1.029166698,178.4484406,
1.037500024,179.5559082,
1.045833349,178.2350311,
1.054166675,178.0730438,
1.0625,177.9835815,
1.070833325,177.5167236,
1.079166651,178.9274139,
1.087499976,178.061615,
1.095833302,177.9223175,
1.104166627,177.759491,
1.112499952,178.6758575,
1.120833278,177.4515533,
1.129166722,179.3634796,
1.137500048,178.3698273,
1.145833373,178.2644196,
1.154166698,178.2880859,
1.162500024,177.6873932,
1.170833349,177.6973877,
1.179166675,178.2213287,
1.1875,179.0074921,
1.195833325,178.915741,
1.204166651,178.5124054,
1.212499976,179.0866852,
1.220833302,177.9110107,
1.229166627,177.7692719,
1.237499952,176.9258575,
1.245833278,177.1263123,
1.254166722,179.8499603,
1.262500048,179.0742645,
1.270833373,177.6977386,
1.279166698,177.3585663,
1.287500024,178.1633453,
1.295833349,177.763031,
1.304166675,178.3501282,
1.3125,178.3104553,
1.320833325,178.9448242,
1.329166651,178.7645264,
1.337499976,178.3279572,
1.345833302,177.9833221,
1.354166627,178.2121887,
1.362499952,177.6084137,
1.370833278,178.7881775,
1.379166722,179.3726959,
1.387500048,178.7318726,
1.395833373,177.5225372,
1.404166698,177.5637665,
1.412500024,177.9636993,
1.420833349,178.5437927,
1.429166675,178.3583679,
1.4375,178.2395325,
1.445833325,178.1529236,
1.454166651,177.8777008,
1.462499976,178.5648193,
1.470833302,177.5753937,
1.479166627,177.7481995,
1.487499952,178.3381958,
1.495833278,178.0911255,
1.504166722,178.2736511,
1.512500048,178.4008942,
1.520833373,177.8897247,
1.529166698,177.0375519,
1.537500024,176.9313965,
1.545833349,178.0852966,
1.554166675,177.5145111,
1.5625,178.7534637,
1.570833325,176.236557,
1.579166651,176.6329956,
1.587499976,177.9891052,
1.595833302,177.9332275,
1.604166627,178.0083313,
1.612499952,178.1183929,
1.620833278,177.9176331,
1.629166722,177.2425079,
1.637500048,177.7518616,
1.645833373,177.8254395,
1.654166698,178.3668213,
1.662500024,178.3618317,
1.670833349,178.2696991,
1.679166675,177.8612061,
1.6875,177.4672241,
1.695833325,177.7601471,
1.704166651,177.8033447,
1.712499976,177.2884827,
1.720833302,178.555542,
1.729166627,178.7359924,
1.737499952,178.1844025,
1.745833278,177.4347992,
1.754166722,177.6856384,
1.762500048,178.2444305,
1.770833373,177.7502289,
1.779166698,177.1027985,
1.787500024,178.3920593,
1.795833349,177.5565643,
1.804166675,177.5262451,
1.8125,177.6230469,
1.820833325,177.9008789,
1.829166651,179.36203,
1.837499976,176.9273834,
1.845833302,177.7847443,
1.854166627,177.4118805,
1.862499952,178.4107513,
1.870833278,178.3358765,
1.879166722,178.0888214,
1.887500048,177.9670258,
1.895833373,177.0321045,
1.904166698,178.8839417,
1.912500024,178.817215,
1.920833349,178.3578949,
1.929166675,177.4859161,
1.9375,177.8438873,
1.945833325,176.9597168,
1.954166651,176.7232208,
1.962499976,177.40625,
1.970833302,177.3448639,
1.979166627,177.2579498,
1.987499952,177.3913116,
1.995833278,177.6866302,
2.004166603,176.9612122,
2.012500048,177.9537659,
2.020833254,177.7396088,
2.029166698,177.946579,
2.037499905,178.1970978,
2.045833349,177.5323486,
2.054166555,177.8309937,
2.0625,177.7648468,
2.070833445,177.5030975,
2.079166651,177.5175781,
2.087500095,177.0929565,
2.095833302,177.7854309,
2.104166746,178.0975189,
2.112499952,177.5625458,
2.120833397,177.997879,
2.129166603,177.8469849,
2.137500048,177.0197144,
2.145833254,176.883606,
2.154166698,177.1440582,
2.162499905,177.1658325,
2.170833349,176.6529846,
2.179166555,176.9438934,
2.1875,176.999176,
2.195833445,178.0384064,
2.204166651,177.2585754,
2.212500095,178.0303345,
2.220833302,177.7220459,
2.229166746,177.7637634,
2.237499952,176.9436646,
2.245833397,177.2949829,
2.254166603,177.0896759,
2.262500048,177.5544434,
2.270833254,177.1081543,
2.279166698,177.0968781,
2.287499905,177.2164917,
2.295833349,176.6761017,
2.304166555,177.4447937,
2.3125,176.9411011,
2.320833445,177.1093292,
2.329166651,177.415802,
2.337500095,176.9696655,
2.345833302,177.4025269,
2.354166746,177.600647,
2.362499952,176.7010193,
2.370833397,177.0128174,
2.379166603,177.0067291,
2.387500048,177.1398926,
2.395833254,176.950943,
2.404166698,177.1351318,
2.412499905,177.2797241,
2.420833349,177.9256439,
2.429166555,177.94487,
2.4375,176.9953156,
2.445833445,178.0896606,
2.454166651,176.9997711,
2.462500095,177.165451,
2.470833302,177.1629333,
2.479166746,176.8751221,
2.487499952,170.9278717,
2.495833397,149.0030975,
2.504166603,159.4389038,
2.512500048,155.862381,
2.520833254,157.8401642,
2.529166698,157.9680023,
2.537499905,157.7971039,
2.545833349,171.1869965,
2.554166555,171.4227448,
2.5625,174.2162018,
2.570833445,142.3100433,
2.579166651,102.7556839,
2.587500095,131.7736511,
2.595833302,179.5889282,
2.604166746,178.0912933,
2.612499952,178.7176666,
2.620833397,178.5654602,
2.629166603,178.0311584,
2.637500048,178.5819244,
2.645833254,178.2475739,
2.654166698,178.1396027,
2.662499905,177.5163422,
2.670833349,177.4945526,
2.679166555,177.3487091,
2.6875,177.5987549,
2.695833445,177.9084167,
2.704166651,177.5859833,
2.712500095,178.2242889,
2.720833302,177.516571,
2.729166746,177.8372345,
2.737499952,177.6078339,
2.745833397,176.8990631,
2.754166603,177.2943573,
2.762500048,177.1825714,
2.770833254,176.9193268,
2.779166698,176.8599243,
2.787499905,177.5387421,
2.795833349,177.4247894,
2.804166555,176.5168457,
2.8125,176.16745,
2.820833445,176.1472778,
2.829166651,176.1955261,
2.837500095,176.2029266,
2.845833302,176.7814178,
2.854166746,175.83461,
2.862499952,176.4112854,
2.870833397,177.1719971,
2.879166603,175.9343872,
2.887500048,176.3621063,
2.895833254,176.5634155,
2.904166698,175.6948547,
2.912499905,175.7846069,
2.920833349,176.0674591,
2.929166555,175.5652924,
2.9375,176.249939,
2.945833445,175.506897,
2.954166651,175.7675781,
2.962500095,175.4862976,
2.970833302,175.6139221,
2.979166746,175.4209442,
2.987499952,175.6782837,
2.995833397,175.4133301,
3.004166603,174.897995,
3.012500048,174.9804382,
3.020833254,174.937149,
3.029166698,175.0938416,
3.037499905,174.4677277,
3.045833349,173.7754974,
3.054166555,174.5225677,
3.0625,173.8568115,
3.070833445,174.0875397,
3.079166651,173.4557648,
3.087500095,173.9644165,
3.095833302,173.8366241,
3.104166746,173.5585327,
3.112499952,173.5218658,
3.120833397,173.8791504,
3.129166603,174.0235138,
3.137500048,173.9924774,
3.145833254,174.1919403,
3.154166698,173.6035919,
3.162499905,174.0805359,
3.170833349,173.730835,
3.179166555,174.141861,
3.1875,174.2294312,
3.195833445,173.7810516,
3.204166651,174.1307373,
3.212500095,173.5699463,
3.220833302,173.2980042,
3.229166746,173.9595795,
3.237499952,173.5878296,
3.245833397,173.5781097,
3.254166603,173.704422,
3.262500048,173.4662476,
3.270833254,172.7273102,
3.279166698,172.8858795,
3.287499905,173.1376343,
3.295833349,173.2909698,
3.304166555,173.2543488,
3.3125,172.6871185,
3.320833445,172.9845123,
3.329166651,172.925354,
3.337500095,173.0969391,
3.345833302,172.224762,
3.354166746,172.1385651,
3.362499952,172.7874756,
3.370833397,172.3821869,
3.379166603,172.5554962,
3.387500048,172.4196777,
3.395833254,171.6410828,
3.404166698,172.859314,
3.412499905,172.5215302,
3.420833349,172.5193176,
3.429166555,172.2579803,
3.4375,172.2388916,
3.445833445,172.0177612,
3.454166651,172.6564484,
3.462500095,172.3858795,
3.470833302,171.8853455,
3.479166746,171.4904022,
3.487499952,171.4717255,
3.495833397,171.8405151,
3.504166603,171.465744,
3.512500048,172.0758362,
3.520833254,171.6808777,
3.529166698,172.3184967,
3.537499905,172.1807556,
3.545833349,171.3387756,
3.554166555,171.8276978,
3.5625,171.2148895,
3.570833445,171.5690918,
3.579166651,171.3381653,
3.587500095,171.5203705,
3.595833302,170.8618011,
3.604166746,171.8792114,
3.612499952,171.2179871,
3.620833397,171.4285278,
3.629166603,171.3012085,
3.637500048,171.1859131,
3.645833254,170.9597931,
3.654166698,170.9525146,
3.662499905,171.2786713,
3.670833349,171.081131,
3.679166555,170.8119812,
3.6875,170.8790436,
3.695833445,170.9636841,
3.704166651,170.7917633,
3.712500095,170.5275879,
3.720833302,169.9794159,
3.729166746,170.7311096,
3.737499952,170.602951,
3.745833397,170.8406067,
3.754166603,170.5918121,
3.762500048,170.4157867,
3.770833254,170.5466003,
3.779166698,170.6028748,
3.787499905,171.1278992,
3.795833349,170.3189392,
3.804166555,170.0146637,
3.8125,170.3419952,
3.820833445,170.2148285,
3.829166651,170.2341309,
3.837500095,170.9477386,
3.845833302,169.7492065,
3.854166746,169.7694397,
3.862499952,170.4957581,
3.870833397,169.9538269,
3.879166603,169.4947662,
3.887500048,169.9929047,
3.895833254,169.3773193,
3.904166698,169.9389038,
3.912499905,170.0444794,
3.920833349,169.3567657,
3.929166555,169.824295,
3.9375,170.0453949,
3.945833445,169.8240814,
3.954166651,169.7252808,
3.962500095,169.8560944,
3.970833302,169.8412628,
3.979166746,169.9082184,
3.987499952,169.759552,
3.995833397,169.2357178,
4.004166603,169.2016602,
4.012499809,169.4961548,
4.020833492,169.570694,
4.029166698,169.4378204,
4.037499905,169.238678,
4.045833111,169.1858521,
4.054166794,169.3870697,
4.0625,168.6705017,
4.070833206,169.4048309,
4.079166889,169.0887604,
4.087500095,169.0284424,
4.095833302,169.3755798,
4.104166508,169.1893005,
4.112500191,169.1593018,
4.120833397,168.9571686,
4.129166603,169.3229675,
4.137499809,169.437851,
4.145833492,168.9785919,
4.154166698,168.8249664,
4.162499905,168.9264374,
4.170833111,168.6207428,
4.179166794,168.5218811,
4.1875,168.8735657,
4.195833206,168.7263641,
4.204166889,167.8425598,
4.212500095,168.1901093,
4.220833302,167.8824005,
4.229166508,168.7273102,
4.237500191,167.9720459,
4.245833397,168.0706024,
4.254166603,168.4358826,
4.262499809,168.2152405,
4.270833492,168.171402,
4.279166698,168.217865,
4.287499905,167.8117371,
4.295833111,168.1538391,
4.304166794,167.9174957,
4.3125,168.513382,
4.320833206,167.2086334,
4.329166889,168.0994415,
4.337500095,167.790451,
4.345833302,167.9121399,
4.354166508,167.8087158,
4.362500191,167.8608856,
4.370833397,167.6133881,
4.379166603,167.5875244,
4.387499809,167.4981995,
4.395833492,167.963623,
4.404166698,167.5363007,
4.412499905,167.7145996,
4.420833111,167.9290314,
4.429166794,167.2570953,
4.4375,167.5057831,
4.445833206,167.2493591,
4.454166889,167.6555939,
4.462500095,167.6975555,
4.470833302,167.1294708,
4.479166508,167.4612579,
4.487500191,167.8045959,
4.495833397,167.630188,
4.504166603,167.4371948,
4.512499809,167.2884064,
4.520833492,167.0998535,
4.529166698,167.2806091,
4.537499905,167.6497955,
4.545833111,167.5447235,
4.554166794,167.0888519,
4.5625,167.5393829,
4.570833206,167.0046234,
4.579166889,167.0917969,
4.587500095,167.1394501,
4.595833302,167.028595,
4.604166508,167.1286926,
4.612500191,166.7097321,
4.620833397,166.7173615,
4.629166603,166.9580841,
4.637499809,167.3013306,
4.645833492,166.8089447,
4.654166698,167.0661163,
4.662499905,166.9298401,
4.670833111,166.5131683,
4.679166794,166.5585938,
4.6875,166.609314,
4.695833206,166.4438629,
4.704166889,167.1582642,
4.712500095,166.2263947,
4.720833302,166.030426,
4.729166508,166.4225159,
4.737500191,166.5659485,
4.745833397,166.4942474,
4.754166603,166.4436798,
4.762499809,166.0172882,
4.770833492,166.701889,
4.779166698,166.6781006,
4.787499905,166.30336,
4.795833111,166.082489,
4.804166794,165.8881989,
4.8125,166.1784668,
4.820833206,166.7021942,
4.829166889,166.601181,
4.837500095,166.4151306,
4.845833302,166.0861969,
4.854166508,165.9849243,
4.862500191,166.0856018,
4.870833397,166.277359,
4.879166603,165.5050354,
4.887499809,166.1385803,
4.895833492,166.1768341,
4.904166698,165.5699158,
4.912499905,165.2396393,
4.920833111,165.7468109,
4.929166794,165.7364807,
4.9375,165.5159302,
4.945833206,165.0657196,
4.954166889,166.2097626,
4.962500095,165.7386322,
4.970833302,165.459137,
4.979166508,165.5807343,
4.987500191,165.329071,
4.995833397,165.6400146,
5.004166603,166.1051636,
5.012499809,165.7321777,
5.020833492,165.4945374,
5.029166698,164.8368988,
5.037499905,165.8371735,
5.045833111,165.6921082,
5.054166794,165.7211304,
5.0625,165.6426239,
5.070833206,165.3630829,
5.079166889,165.906723,
5.087500095,165.3165588,
5.095833302,165.4727325,
5.104166508,165.4963989,
5.112500191,165.6124573,
5.120833397,166.0088348,
5.129166603,165.3126221,
5.137499809,165.2867432,
5.145833492,164.8533173,
5.154166698,165.1806946,
5.162499905,165.1381073,
5.170833111,164.8471985,
5.179166794,164.6997375,
5.1875,164.8445129,
5.195833206,165.0796967,
5.204166889,164.9611359,
5.212500095,164.7791595,
5.220833302,165.293869,
5.229166508,164.6332703,
5.237500191,163.8369446,
5.245833397,165.3502197,
5.254166603,165.1823883,
5.262499809,164.8542786,
5.270833492,165.0446014,
5.279166698,164.8062286,
5.287499905,164.7152557,
5.295833111,164.8408356,
5.304166794,164.7837982,
5.3125,164.7655945,
5.320833206,164.4583893,
5.329166889,164.1648712,
5.337500095,164.1210175,
5.345833302,164.348114,
5.354166508,164.2961731,
5.362500191,164.3903198,
5.370833397,164.8676758,
5.379166603,163.8958282,
5.387499809,164.4256287,
5.395833492,164.7003937,
5.404166698,164.2264862,
5.412499905,164.3032379,
5.420833111,164.4118042,
5.429166794,164.5644989,
5.4375,164.754776,
5.445833206,164.2110138,
5.454166889,163.9117279,
5.462500095,164.0091248,
5.470833302,164.1941833,
5.479166508,164.1019135,
5.487500191,164.251236,
5.495833397,164.5862122,
5.504166603,163.9279327,
5.512499809,163.989975,
5.520833492,163.9846497,
5.529166698,164.2379608,
5.537499905,164.0743713,
5.545833111,164.3874969,
5.554166794,163.8671265,
5.5625,164.562149,
5.570833206,164.1641541,
5.579166889,163.7182159,
5.587500095,163.9871826,
5.595833302,164.3427582,
5.604166508,163.7554016,
5.612500191,164.0018311,
5.620833397,164.1746521,
5.629166603,163.7113342,
5.637499809,163.7593079,
5.645833492,163.7940369,
5.654166698,164.2171173,
5.662499905,163.7355194,
5.670833111,163.7815399,
5.679166794,163.9086456,
5.6875,163.6878662,
5.695833206,163.5105133,
5.704166889,163.7852325,
5.712500095,163.4116058,
5.720833302,163.9349823,
5.729166508,163.2006836,
5.737500191,163.4523926,
5.745833397,163.7455139,
5.754166603,163.4531708,
5.762499809,163.6928253,
5.770833492,163.1001587,
5.779166698,163.5934143,
5.787499905,163.7548676,
5.795833111,163.3301086,
5.804166794,163.629425,
5.8125,163.2127686,
5.820833206,163.7330933,
5.829166889,163.6669464,
5.837500095,162.9966736,
5.845833302,162.9819336,
5.854166508,163.1407623,
5.862500191,163.4447327,
5.870833397,163.3288574,
5.879166603,163.0072479,
5.887499809,163.195282,
5.895833492,163.0897675,
5.904166698,162.8291626,
5.912499905,163.4533844,
5.920833111,163.1947632,
5.929166794,162.7080231,
5.9375,162.5229187,
5.945833206,163.0903778,
5.954166889,163.2422943,
5.962500095,162.8256531,
5.970833302,163.2024994,
5.979166508,162.8882599,
5.987500191,162.7468872,
5.995833397,162.9108887,
6.004166603,162.8569489,
6.012499809,162.8118439,
6.020833492,162.7462769,
6.029166698,162.4549408,
6.037499905,162.0993195,
6.045833111,162.8068237,
6.054166794,162.7250366,
6.0625,162.4639435,
6.070833206,162.7003784,
6.079166889,162.4549103,
6.087500095,163.0700684,
6.095833302,162.1929932,
6.104166508,162.6152802,
6.112500191,162.877655,
6.120833397,162.312912,
6.129166603,162.6929474,
6.137499809,162.5217896,
6.145833492,162.5680695,
6.154166698,162.365509,
6.162499905,162.6157684,
6.170833111,162.6117859,
6.179166794,162.6349182,
6.1875,162.1557465,
6.195833206,162.9388885,
6.204166889,162.1883392,
6.212500095,162.7525635,
6.220833302,161.8216705,
6.229166508,162.6562195,
6.237500191,162.3023529,
6.245833397,161.976593,
6.254166603,162.7165375,
6.262499809,161.847702,
6.270833492,161.7104187,
6.279166698,162.7594604,
6.287499905,162.3031921,
6.295833111,162.2476044,
6.304166794,161.8520966,
6.3125,162.4615936,
6.320833206,162.0173035,
6.329166889,162.0675659,
6.337500095,161.5463867,
6.345833302,161.4958649,
6.354166508,162.2153473,
6.362500191,161.6732178,
6.370833397,161.910202,
6.379166603,161.9718323,
6.387499809,161.5663605,
6.395833492,162.5142822,
6.404166698,161.9863434,
6.412499905,161.681778,
6.420833111,162.1006165,
6.429166794,161.8175049,
6.4375,162.0806732,
6.445833206,161.3493042,
6.454166889,162.3400726,
6.462500095,162.1903381,
6.470833302,161.7928009,
6.479166508,162.0361633,
6.487500191,161.7529907,
6.495833397,161.4095306,
6.504166603,161.9141083,
6.512499809,161.536972,
6.520833492,161.6427307,
6.529166698,161.4514923,
6.537499905,161.6173096,
6.545833111,161.8153229,
6.554166794,161.5702515,
6.5625,161.6502991,
6.570833206,161.3178253,
6.579166889,162.1507111,
6.587500095,161.5191803,
6.595833302,161.8785095,
6.604166508,161.6353149,
6.612500191,161.2891388,
6.620833397,161.3918152,
6.629166603,161.1329956,
6.637499809,161.1221161,
6.645833492,161.648407,
6.654166698,161.5881653,
6.662499905,161.8628693,
6.670833111,160.860199,
6.679166794,161.4570465,
6.6875,161.7431183,
6.695833206,160.785202,
6.704166889,161.0884705,
6.712500095,161.1337738,
6.720833302,161.6538544,
6.729166508,161.1248779,
6.737500191,161.6151733,
6.745833397,161.2440338,
6.754166603,161.3724518,
6.762499809,161.1683197,
6.770833492,160.9716797,
6.779166698,161.0180054,
6.787499905,160.5132751,
6.795833111,160.8192444,
6.804166794,161.0673981,
6.8125,160.634903,
6.820833206,160.7112122,
6.829166889,160.6795502,
6.837500095,160.8847198,
6.845833302,160.7375641,
6.854166508,160.6207733,
6.862500191,161.0595398,
6.870833397,160.3322754,
6.879166603,160.5785675,
6.887499809,161.0316925,
6.895833492,160.7593689,
6.904166698,160.9970245,
6.912499905,160.8207703,
6.920833111,160.5027008,
6.929166794,161.0606995,
6.9375,160.4576874,
6.945833206,160.5540924,
6.954166889,160.334671,
6.962500095,160.3497467,
6.970833302,160.3481445,
6.979166508,159.9400787,
6.987500191,160.6331635,
6.995833397,160.4698792,
7.004166603,160.3106232,
7.012499809,160.1378326,
7.020833492,160.3042755,
7.029166698,160.0006561,
7.037499905,160.7462921,
7.045833111,160.123703,
7.054166794,160.2088013,
7.0625,160.5253296,
7.070833206,160.1075897,
7.079166889,160.4196167,
7.087500095,160.8334351,
7.095833302,160.3588257,
7.104166508,160.0693207,
7.112500191,159.9592438,
7.120833397,159.8359833,
7.129166603,160.0200043,
7.137499809,160.234726,
7.145833492,160.4029541,
7.154166698,160.3262024,
7.162499905,160.0154266,
7.170833111,160.2523346,
7.179166794,160.1663055,
7.1875,160.0447235,
7.195833206,160.0287323,
7.204166889,159.8840942,
7.212500095,160.0887451,
7.220833302,160.0575409,
7.229166508,159.7904663,
7.237500191,160.3889923,
7.245833397,160.0184631,
7.254166603,160.300293,
7.262499809,159.9716034,
7.270833492,160.3599701,
7.279166698,159.5200806,
7.287499905,159.5911713,
7.295833111,160.0354462,
7.304166794,159.9881287,
7.3125,159.9584045,
7.320833206,159.9614868,
7.329166889,159.8394775,
7.337500095,159.4828949,
7.345833302,159.9401245,
7.354166508,160.0227966,
7.362500191,159.8539886,
7.370833397,160.2636261,
7.379166603,160.1651306,
7.387499809,159.5991364,
7.395833492,159.6973114,
7.404166698,160.6085358,
7.412499905,159.7992554,
7.420833111,160.0261993,
7.429166794,160.2505341,
7.4375,159.7258759,
7.445833206,159.8136902,
7.454166889,159.9487152,
7.462500095,160.0046844,
7.470833302,159.3637543,
7.479166508,159.8513947,
7.487500191,159.7432404,
7.495833397,159.2913208,
7.504166603,160.0297394,
7.512499809,159.3628387,
7.520833492,159.6483154,
7.529166698,159.7597504,
7.537499905,159.5836945,
7.545833111,159.6537781,
7.554166794,159.3994293,
7.5625,159.6320343,
7.570833206,159.3145599,
7.579166889,159.7159576,
7.587500095,159.7584076,
7.595833302,159.8882904,
7.604166508,159.5406799,
7.612500191,159.0305176,
7.620833397,159.1500244,
7.629166603,159.3426819,
7.637499809,159.6136932,
7.645833492,159.4271698,
7.654166698,159.3896332,
7.662499905,159.3742676,
7.670833111,159.5209045,
7.679166794,159.2821045,
7.6875,159.1351166,
7.695833206,159.4998016,
7.704166889,159.366745,
7.712500095,159.9736176,
7.720833302,159.3278351,
7.729166508,159.1126099,
7.737500191,158.8732605,
7.745833397,159.0878143,
7.754166603,159.3366394,
7.762499809,159.2149506,
7.770833492,159.2811432,
7.779166698,159.1018982,
7.787499905,159.2043762,
7.795833111,159.0251465,
7.804166794,158.844696,
7.8125,159.3996582,
7.820833206,158.9933014,
7.829166889,158.7060394,
7.837500095,158.7337799,
7.845833302,159.1782227,
7.854166508,158.9672241,
7.862500191,159.2080536,
7.870833397,159.113266,
7.879166603,158.7681885,
7.887499809,159.1838226,
7.895833492,158.7130585,
7.904166698,158.7468872,
7.912499905,158.790451,
7.920833111,158.8177185,
7.929166794,158.8775787,
7.9375,158.3052521,
7.945833206,158.6995239,
7.954166889,159.3981781,
7.962500095,159.1083069,
7.970833302,158.7346649,
7.979166508,158.6216736,
7.987500191,158.5757446,
7.995833397,158.7498322,
8.004166603,158.6042175,
8.012499809,158.0214539,
8.020833015,158.4170685,
8.029166222,158.4837646,
8.037500381,158.3536377,
8.045833588,158.8115997,
8.054166794,158.7124176,
8.0625,158.692276,
8.070833206,157.9119415,
8.079166412,158.5532532,
8.087499619,158.5127869,
8.095833778,158.4532013,
8.104166985,158.4633331,
8.112500191,158.7605133,
8.120833397,158.2315979,
8.129166603,158.639679,
8.137499809,158.2399902,
8.145833015,157.6958466,
8.154166222,158.0463104,
8.162500381,158.6038818,
8.170833588,158.0412292,
8.179166794,158.5028687,
8.1875,158.3456879,
8.195833206,158.2085266,
8.204166412,158.1059265,
8.212499619,158.3534393,
8.220833778,158.2335968,
8.229166985,158.4133759,
8.237500191,158.3055115,
8.245833397,158.1720581,
8.254166603,157.6386414,
8.262499809,158.2639618,
8.270833015,158.383316,
8.279166222,157.9467773,
8.287500381,158.1606903,
8.295833588,158.0572662,
8.304166794,157.8040161,
8.3125,158.0117493,
8.320833206,158.1968079,
8.329166412,157.8714447,
8.337499619,157.5953369,
8.345833778,158.423233,
8.354166985,157.6463013,
8.362500191,157.8757629,
8.370833397,157.9685211,
8.379166603,157.8496704,
8.387499809,158.4927063,
8.395833015,158.1038971,
8.404166222,158.4233856,
8.412500381,158.1372681,
8.420833588,157.7816925,
8.429166794,157.681778,
8.4375,157.7429962,
8.445833206,157.7591705,
8.454166412,157.4116974,
8.462499619,157.4694519,
8.470833778,158.3873138,
8.479166985,157.8237152,
8.487500191,158.0628662,
8.495833397,157.7671204,
8.504166603,157.8451843,
8.512499809,158.1930542,
8.520833015,157.7771454,
8.529166222,157.7646942,
8.537500381,157.8377075,
8.545833588,157.8507538,
8.554166794,157.9354248,
8.5625,157.711853,
8.570833206,157.5671387,
8.579166412,157.3078918,
8.587499619,158.0235291,
8.595833778,157.3046417,
8.604166985,157.5090027,
8.612500191,157.5357971,
8.620833397,157.3917999,
8.629166603,157.7914124,
8.637499809,157.4961853,
8.645833015,157.588913,
8.654166222,157.4565125,
8.662500381,157.5027466,
8.670833588,157.2843933,
8.679166794,157.4474487,
8.6875,157.6681824,
8.695833206,157.5931091,
8.704166412,157.3226776,
8.712499619,157.2091522,
8.720833778,157.188736,
8.729166985,157.7295074,
8.737500191,157.1511536,
8.745833397,157.723999,
8.754166603,157.6136017,
8.762499809,157.7084351,
8.770833015,157.4312744,
8.779166222,157.0236053,
8.787500381,157.5560913,
8.795833588,157.1805878,
8.804166794,156.9872894,
8.8125,156.8149872,
8.820833206,157.5133667,
8.829166412,157.6681366,
8.837499619,157.3679047,
8.845833778,157.1434479,
8.854166985,157.0156403,
8.862500191,157.2862701,
8.870833397,157.4487305,
8.879166603,157.054657,
8.887499809,157.0704041,
8.895833015,157.1881104,
8.904166222,157.0832367,
8.912500381,156.7915955,
8.920833588,157.0150146,
8.929166794,156.980835,
8.9375,156.8130188,
8.945833206,157.4569702,
8.954166412,157.1507263,
8.962499619,156.5803833,
8.970833778,157.0478516,
8.979166985,156.9499054,
8.987500191,156.8638916,
8.995833397,157.0890198,
9.004166603,157.0094604,
9.012499809,157.0927582,
9.020833015,157.0101166,
9.029166222,156.9339294,
9.037500381,157.0443115,
9.045833588,157.1705475,
9.054166794,156.888382,
9.0625,156.7732849,
9.070833206,157.0529938,
9.079166412,156.7666473,
9.087499619,156.7630463,
9.095833778,156.9546356,
9.104166985,156.6125946,
9.112500191,156.754776,
9.120833397,157.0344543,
9.129166603,157.0461426,
9.137499809,157.0555115,
9.145833015,156.969574,
9.154166222,156.5497742,
9.162500381,157.0359192,
9.170833588,156.8327942,
9.179166794,156.9035187,
9.1875,156.5796661,
9.195833206,157.2844849,
9.204166412,156.2837219,
9.212499619,156.732254,
9.220833778,156.7835236,
9.229166985,156.8761597,
9.237500191,157.0538025,
9.245833397,157.0879822,
9.254166603,157.0350342,
9.262499809,156.4727478,
9.270833015,156.6126556,
9.279166222,157.0755157,
9.287500381,156.7952423,
9.295833588,156.9654388,
9.304166794,156.6009674,
9.3125,156.2987671,
9.320833206,156.8898163,
9.329166412,156.532074,
9.337499619,156.3146362,
9.345833778,156.6313934,
9.354166985,156.7254639,
9.362500191,157.2527771,
9.370833397,156.6038818,
9.379166603,156.9122925,
9.387499809,156.405365,
9.395833015,156.3978271,
9.404166222,157.3413849,
9.412500381,156.1931458,
9.420833588,156.5704803,
9.429166794,157.0228424,
9.4375,156.7483978,
9.445833206,156.5664825,
9.454166412,156.8051758,
9.462499619,156.5382996,
9.470833778,155.9813232,
9.479166985,156.3474121,
9.487500191,155.8881683,
9.495833397,156.450592,
9.504166603,156.643219,
9.512499809,156.501236,
9.520833015,156.44133,
9.529166222,156.3129425,
9.537500381,156.1057587,
9.545833588,156.6800385,
9.554166794,156.4762115,
9.5625,156.7157745,
9.570833206,156.1904602,
9.579166412,156.3071899,
9.587499619,156.6070862,
9.595833778,156.2636108,
9.604166985,156.2204132,
9.612500191,156.2777863,
9.620833397,156.085144,
9.629166603,156.5249176,
9.637499809,156.2217255,
9.645833015,156.1851044,
9.654166222,155.9334564,
9.662500381,156.1461639,
9.670833588,156.2710114,
9.679166794,155.6444855,
9.6875,155.3498688,
9.695833206,155.6796112,
9.704166412,156.0072174,
9.712499619,156.0169678,
9.720833778,155.7753143,
9.729166985,156.2731934,
9.737500191,155.8426971,
9.745833397,156.1035767,
9.754166603,156.2533264,
9.762499809,155.911026,
9.770833015,155.8387756,
9.779166222,155.9308777,
9.787500381,156.0413208,
9.795833588,156.2435608,
9.804166794,156.2125549,
9.8125,155.667572,
9.820833206,155.950119,
9.829166412,156.1212616,
9.837499619,155.7732086,
9.845833778,156.0225372,
9.854166985,155.6138763,
9.862500191,155.5515442,
9.870833397,156.0317993,
9.879166603,155.7726746,
9.887499809,155.6435547,
9.895833015,155.8420105,
9.904166222,156.1824951,
9.912500381,155.5674133,
9.920833588,155.8195801,
9.929166794,156.1479187,
9.9375,156.0983276,
9.945833206,155.7885132,
9.954166412,155.7776031,
9.962499619,155.8828735,
9.970833778,155.4351044,
9.979166985,155.8308563,
9.987500191,155.6012421,
9.995833397,155.5293732,
10.0041666,156.0671692,
10.01249981,155.3570404,
10.02083302,156.2257233,
10.02916622,156.1517639,
10.03750038,155.8694153,
10.04583359,155.6343231,
10.05416679,156.0918884,
10.0625,155.7931824,
10.07083321,155.4647064,
10.07916641,155.5699005,
10.08749962,155.3031158,
10.09583378,155.7654572,
10.10416698,155.5833282,
10.11250019,155.0649567,
10.1208334,155.4849091,
10.1291666,155.3616638,
10.13749981,155.90242,
10.14583302,155.8342438,
10.15416622,155.2189636,
10.16250038,155.6676025,
10.17083359,155.4063568,
10.17916679,155.6485291,
10.1875,155.4391937,
10.19583321,155.907959,
10.20416641,155.8254089,
10.21249962,155.3612213,
10.22083378,155.9678802,
10.22916698,155.3880157,
10.23750019,155.7494049,
10.2458334,155.4764709,
10.2541666,155.6566467,
10.26249981,155.5488739,
10.27083302,155.4982452,
10.27916622,155.6246643,
10.28750038,155.3502045,
10.29583359,155.2248688,
10.30416679,155.6437836,
10.3125,155.2425995,
10.32083321,155.0516815,
10.32916641,155.5523224,
10.33749962,155.3248901,
10.34583378,155.3988342,
10.35416698,155.7792053,
10.36250019,155.7630768,
10.3708334,155.4088287,
10.3791666,155.6041107,
10.38749981,155.6300201,
10.39583302,155.2825928,
10.40416622,155.3102417,
10.41250038,155.3298798,
10.42083359,155.6412506,
10.42916679,155.3903198,
10.4375,155.510025,
10.44583321,155.2987061,
10.45416641,155.5331573,
10.46249962,155.4639587,
10.47083378,155.3979645,
10.47916698,154.9836884,
10.48750019,155.2125397,
10.4958334,155.9207611,
10.5041666,155.6930084,
10.51249981,155.3041382,
10.52083302,155.3083954,
10.52916622,155.5735931,
10.53750038,155.2236328,
10.54583359,155.3806152,
10.55416679,155.1504517,
10.5625,155.3169861,
10.57083321,154.9144592,
10.57916641,154.8133698,
10.58749962,155.3566284,
10.59583378,155.4045563,
10.60416698,155.1559753,
10.61250019,155.2377472,
10.6208334,154.9983215,
10.6291666,155.0187378,
10.63749981,154.9755707,
10.64583302,155.2856903,
10.65416622,154.8122711,
10.66250038,155.023056,
10.67083359,155.019577,
10.67916679,155.1989594,
10.6875,155.1095581,
10.69583321,154.982193,
10.70416641,155.2728577,
10.71249962,155.1863251,
10.72083378,155.1964264,
10.72916698,155.4959869,
10.73750019,154.9982605,
10.7458334,155.1653442,
10.7541666,155.0986023,
10.76249981,155.2080994,
10.77083302,154.8391571,
10.77916622,155.3604431,
10.78750038,154.829895,
10.79583359,154.8026428,
10.80416679,154.7453308,
10.8125,155.0022888,
10.82083321,155.0267181,
10.82916641,154.9451447,
10.83749962,155.0057831,
10.84583378,155.2766266,
10.85416698,155.0256958,
10.86250019,155.2468414,
10.8708334,155.0172119,
10.8791666,155.0684662,
10.88749981,154.6136169,
10.89583302,154.6338654,
10.90416622,154.5209045,
10.91250038,154.9137268,
10.92083359,154.7324982,
10.92916679,155.1095123,
10.9375,154.7812958,
10.94583321,154.5408173,
10.95416641,154.6363525,
10.96249962,154.6604309,
10.97083378,154.6281586,
10.97916698,154.7917328,
10.98750019,155.3695221,
10.9958334,154.1525421,
11.0041666,154.9436188,
11.01249981,154.8375854,
11.02083302,155.0886078,
11.02916622,155.208786,
11.03750038,154.8303375,
11.04583359,154.6616058,
11.05416679,154.4703522,
11.0625,155.2059631,
11.07083321,155.0371399,
11.07916641,154.6139069,
11.08749962,154.557663,
11.09583378,155.3770599,
11.10416698,154.4766235,
11.11250019,155.0069885,
11.1208334,155.0774841,
11.1291666,154.5119019,
11.13749981,154.0320282,
11.14583302,154.6763153,
11.15416622,155.1035156,
11.16250038,154.2984619,
11.17083359,154.6247559,
11.17916679,154.6243896,
11.1875,154.6064758,
11.19583321,154.4711761,
11.20416641,154.3444824,
11.21249962,154.7203979,
11.22083378,154.5332794,
11.22916698,154.8743286,
11.23750019,154.6670074,
11.2458334,154.2028198,
11.2541666,154.8930511,
11.26249981,154.3601227,
11.27083302,154.6857147,
11.27916622,154.8394165,
11.28750038,154.3713379,
11.29583359,154.9853821,
11.30416679,154.6558685,
11.3125,154.6717072,
11.32083321,154.4044189,
11.32916641,154.2776794,
11.33749962,154.7548523,
11.34583378,154.4250183,
11.35416698,154.9501038,
11.36250019,154.9024658,
11.3708334,154.3196716,
11.3791666,154.4109497,
11.38749981,154.0173645,
11.39583302,154.4547272,
11.40416622,154.5858307,
11.41250038,154.4498901,
11.42083359,154.6664886,
11.42916679,154.4253845,
11.4375,154.2279358,
11.44583321,154.4305115,
11.45416641,154.3327179,
11.46249962,154.4099884,
11.47083378,154.2803192,
11.47916698,154.0021362,
11.48750019,154.781723,
11.4958334,154.2570038,
11.5041666,154.7255096,
11.51249981,154.0977631,
11.52083302,154.6099243,
11.52916622,154.0163269,
11.53750038,154.3871155,
11.54583359,153.9232635,
11.55416679,154.1558685,
11.5625,154.8105011,
11.57083321,154.3236084,
11.57916641,153.9537048,
11.58749962,154.2514496,
11.59583378,154.4251862,
11.60416698,154.4462585,
11.61250019,154.0800781,
11.6208334,154.2487183,
11.6291666,153.9262238,
11.63749981,154.6880341,
11.64583302,154.2015533,
11.65416622,154.3232727,
11.66250038,154.4008636,
11.67083359,154.2617188,
11.67916679,154.3730621,
11.6875,154.361557,
11.69583321,154.191925,
11.70416641,154.7593384,
11.71249962,154.6356201,
11.72083378,154.3190613,
11.72916698,153.9574738,
11.73750019,155.0354309,
11.7458334,154.3869171,
11.7541666,153.8660126,
11.76249981,154.2422485,
11.77083302,154.2514038,
11.77916622,154.3006592,
11.78750038,154.2619476,
11.79583359,154.1847229,
11.80416679,153.6334991,
11.8125,154.0519867,
11.82083321,154.2049103,
11.82916641,154.3058624,
11.83749962,154.1161346,
11.84583378,154.0266571,
11.85416698,154.0230408,
11.86250019,153.963623,
11.8708334,153.908844,
11.8791666,153.3729706,
11.88749981,154.0250549,
11.89583302,153.9498749,
11.90416622,153.3957062,
11.91250038,153.9227905,
11.92083359,153.7515717,
11.92916679,154.0434875,
11.9375,154.6172638,
11.94583321,154.0815277,
11.95416641,154.1461945,
11.96249962,153.9629822,
11.97083378,153.8092804,
11.97916698,153.8255005,
11.98750019,153.8519592,
11.9958334,153.8227844,
12.0041666,153.9645233,
12.01249981,154.3770142,
12.02083302,154.1017303,
12.02916622,153.4237366,
12.03750038,154.326828,
12.04583359,154.0678101,
12.05416679,153.7176056,
12.0625,154.3524628,
12.07083321,153.8024902,
12.07916641,154.3693542,
12.08749962,153.6948242,
12.09583378,154.2092896,
12.10416698,153.9868469,
12.11250019,153.8169861,
12.1208334,154.3623047,
12.1291666,154.3152924,
12.13749981,154.07164,
12.14583302,153.7672119,
12.15416622,153.8237152,
12.16250038,153.925766,
12.17083359,154.0995331,
12.17916679,153.6950989,
12.1875,154.0166321,
12.19583321,153.8769531,
12.20416641,153.3972473,
12.21249962,153.920639,
12.22083378,154.0042419,
12.22916698,153.8014526,
12.23750019,153.3180847,
12.2458334,153.9549408,
12.2541666,154.8739624,
12.26249981,153.6936951,
12.27083302,154.0012512,
12.27916622,154.2580566,
12.28750038,153.8374939,
12.29583359,153.5392609,
12.30416679,154.0909119,
12.3125,154.3479309,
12.32083321,153.8850555,
12.32916641,153.5294952,
12.33749962,153.5466309,
12.34583378,153.6038818,
12.35416698,154.1532745,
12.36250019,154.1627197,
12.3708334,153.5323486,
12.3791666,153.6438446,
12.38749981,154.4253845,
12.39583302,153.4380035,
12.40416622,153.9777374,
12.41250038,153.9736938,
12.42083359,153.5866241,
12.42916679,153.3539276,
12.4375,153.5065613,
12.44583321,153.4538116,
12.45416641,153.6112213,
12.46249962,153.730011,
12.47083378,153.7809143,
12.47916698,153.6067505,
12.48750019,154.0960693,
12.4958334,153.7100677,
12.5041666,153.4605103,
12.51249981,153.5894623,
12.52083302,153.4902496,
12.52916622,153.4525146,
12.53750038,153.8405609,
12.54583359,153.8909607,
12.55416679,153.5721741,
12.5625,153.4932098,
12.57083321,153.4644775,
12.57916641,153.8416595,
12.58749962,153.6100311,
12.59583378,153.8849945,
12.60416698,153.6572113,
12.61250019,154.0046997,
12.6208334,154.0049744,
12.6291666,153.3114929,
12.63749981,153.2056122,
12.64583302,153.8368073,
12.65416622,153.3383179,
12.66250038,153.8063965,
12.67083359,153.8194733,
12.67916679,153.6948547,
12.6875,153.7850037,
12.69583321,153.4820251,
12.70416641,153.3092957,
12.71249962,153.276947,
12.72083378,153.3937836,
12.72916698,153.3557281,
12.73750019,153.7557526,
12.7458334,153.5615082,
12.7541666,153.7905121,
12.76249981,153.3424072,
12.77083302,153.4897919,
12.77916622,153.4933472,
12.78750038,153.4885559,
12.79583359,153.6776886,
12.80416679,153.2062531,
12.8125,153.6081238,
12.82083321,153.4194031,
12.82916641,153.2186279,
12.83749962,152.9458466,
12.84583378,153.1876068,
12.85416698,152.9472656,
12.86250019,153.1048431,
12.8708334,153.1678925,
12.8791666,153.4149933,
12.88749981,153.3253784,
12.89583302,152.9407654,
12.90416622,153.25354,
12.91250038,153.1494446,
12.92083359,153.2137299,
12.92916679,153.0962067,
12.9375,152.9649658,
12.94583321,153.444931,
12.95416641,153.0799866,
12.96249962,153.2587585,
12.97083378,153.5827637,
12.97916698,153.082489,
12.98750019,153.5524902,
12.9958334,153.4439087,
13.0041666,153.4423218,
13.01249981,153.4477234,
13.02083302,153.1134491,
13.02916622,153.0207977,
13.03750038,153.386322,
13.04583359,153.8307495,
13.05416679,152.7913361,
13.0625,153.4944,
13.07083321,153.5266571,
13.07916641,152.8917694,
13.08749962,153.54776,
13.09583378,153.3635101,
13.10416698,152.8763733,
13.11250019,153.2714081,
13.1208334,153.3920746,
13.1291666,153.1851196,
13.13749981,153.5215149,
13.14583302,153.2542114,
13.15416622,153.2282104,
13.16250038,153.2431793,
13.17083359,153.2737122,
13.17916679,153.3407745,
13.1875,153.2081451,
13.19583321,153.4356232,
13.20416641,153.0732422,
13.21249962,153.6047058,
13.22083378,152.6330872,
13.22916698,152.9544678,
13.23750019,153.2297211,
13.2458334,153.2247925,
13.2541666,153.1846008,
13.26249981,153.3366089,
13.27083302,153.2064362,
13.27916622,153.0160675,
13.28750038,152.9959412,
13.29583359,153.0184784,
13.30416679,153.2105255,
13.3125,153.1372681,
13.32083321,152.8022614,
13.32916641,152.9786987,
13.33749962,153.1562805,
13.34583378,153.1549225,
13.35416698,152.9394379,
13.36250019,153.4255371,
13.3708334,152.8607483,
13.3791666,152.8465881,
13.38749981,153.1182404,
13.39583302,153.24823,
13.40416622,152.9691772,
13.41250038,153.2432556,
13.42083359,153.0594635,
13.42916679,153.1340027,
13.4375,153.0428314,
13.44583321,152.6460876,
13.45416641,152.9607697,
13.46249962,153.2721405,
13.47083378,152.9046326,
13.47916698,152.7713776,
13.48750019,153.0158234,
13.4958334,153.1113281,
13.5041666,153.0072021,
13.51249981,153.0406647,
13.52083302,153.0214233,
13.52916622,152.9407196,
13.53750038,152.9677734,
13.54583359,152.9467163,
13.55416679,152.8778992,
13.5625,152.9519348,
13.57083321,152.8908691,
13.57916641,152.8945313,
13.58749962,152.7327118,
13.59583378,152.6611176,
13.60416698,152.9974518,
13.61250019,153.151886,
13.6208334,152.7489624,
13.6291666,153.2020721,
13.63749981,152.9927368,
13.64583302,153.0286255,
13.65416622,152.690506,
13.66250038,152.6979065,
13.67083359,152.3669128,
13.67916679,152.9616547,
13.6875,152.7597198,
13.69583321,152.2671204,
13.70416641,153.307663,
13.71249962,152.6931,
13.72083378,152.4096527,
13.72916698,152.674942,
13.73750019,152.9275818,
13.7458334,152.6904907,
13.7541666,152.9772644,
13.76249981,152.7402191,
13.77083302,152.5123749,
13.77916622,152.6567993,
13.78750038,153.032486,
13.79583359,152.7917023,
13.80416679,152.9106293,
13.8125,152.689743,
13.82083321,152.5722961,
13.82916641,152.7294312,
13.83749962,152.5867462,
13.84583378,152.5144196,
13.85416698,152.38414,
13.86250019,152.6881714,
13.8708334,152.7616425,
13.8791666,152.556839,
13.88749981,152.46138,
13.89583302,152.7540436,
13.90416622,152.5038757,
13.91250038,152.2743683,
13.92083359,152.2730713,
13.92916679,152.510788,
13.9375,152.2334442,
13.94583321,152.6573486,
13.95416641,152.1382141,
13.96249962,152.4971466,
13.97083378,152.4107513,
13.97916698,152.2182465,
13.98750019,152.057373,
13.9958334,152.4906311,
14.0041666,152.5299835,
14.01249981,153.083786,
14.02083302,153.072052,
14.02916622,152.5610504,
14.03750038,152.4000244,
14.04583359,151.9311981,
14.05416679,152.333786,
14.0625,152.0157166,
14.07083321,152.3541412,
14.07916641,152.0281677,
14.08749962,152.3415833,
14.09583378,152.5506287,
14.10416698,152.1218109,
14.11250019,152.3235779,
14.1208334,152.0402679,
14.1291666,152.3878784,
14.13749981,152.4061432,
14.14583302,152.3748169,
14.15416622,151.9629517,
14.16250038,152.4218597,
14.17083359,152.0091095,
14.17916679,152.2106781,
14.1875,152.2828369,
14.19583321,152.2338104,
14.20416641,152.2213287,
14.21249962,152.0286713,
14.22083378,151.9399261,
14.22916698,152.1860352,
14.23750019,152.2405853,
14.2458334,151.8660431,
14.2541666,152.1124878,
14.26249981,152.0270691,
14.27083302,152.6174774,
14.27916622,152.0388947,
14.28750038,152.1191864,
14.29583359,152.3543701,
14.30416679,151.7624664,
14.3125,151.9647217,
14.32083321,151.8153229,
14.32916641,152.1248016,
14.33749962,152.0973053,
14.34583378,152.2110901,
14.35416698,152.1858063,
14.36250019,152.0597839,
14.3708334,152.1777649,
14.3791666,151.9599915,
14.38749981,151.8028107,
14.39583302,151.9559937,
14.40416622,151.9182739,
14.41250038,151.9557648,
14.42083359,151.7966003,
14.42916679,151.8072357,
14.4375,151.8939362,
14.44583321,151.8004761,
14.45416641,152.0426178,
14.46249962,152.1695557,
14.47083378,152.216629,
14.47916698,152.3341217,
14.48750019,151.5006714,
14.4958334,152.1766357,
14.5041666,152.1105194,
14.51249981,152.0972137,
14.52083302,151.8135529,
14.52916622,152.1399078,
14.53750038,152.3092041,
14.54583359,151.7732697,
14.55416679,152.4788361,
14.5625,151.9444885,
14.57083321,152.1508179,
14.57916641,152.3515778,
14.58749962,151.9325409,
14.59583378,152.0626984,
14.60416698,152.0077362,
14.61250019,151.9969788,
14.6208334,152.0476532,
14.6291666,152.3321228,
14.63749981,151.8135223,
14.64583302,152.2297668,
14.65416622,151.6825256,
14.66250038,151.4657135,
14.67083359,151.3696747,
14.67916679,151.8468933,
14.6875,151.904129,
14.69583321,152.178299,
14.70416641,151.8663025,
14.71249962,151.706955,
14.72083378,151.7567596,
14.72916698,151.7642365,
14.73750019,151.8878937,
14.7458334,151.4505615,
14.7541666,151.6225739,
14.76249981,151.9918365,
14.77083302,151.7614594,
14.77916622,151.5888062,
14.78750038,151.7136993,
14.79583359,151.5754547,
14.80416679,151.4107819,
14.8125,151.4828949,
14.82083321,151.3463135,
14.82916641,152.2970276,
14.83749962,151.9225616,
14.84583378,151.5996857,
14.85416698,151.8213806,
14.86250019,151.5452423,
14.8708334,151.8439636,
14.8791666,151.6247406,
14.88749981,151.7203522,
14.89583302,151.5509644,
14.90416622,151.6522522,
14.91250038,152.0357056,
14.92083359,151.447403,
14.92916679,151.7779236,
14.9375,151.7272339,
14.94583321,151.470108,
14.95416641,151.9569092,
14.96249962,151.6616364,
14.97083378,151.542511,
14.97916698,151.3315582,
14.98750019,151.6849976,
14.9958334,151.6386261,
15.0041666,151.2316132,
15.01249981,151.9430084,
15.02083302,151.5726776,
15.02916622,151.694397,
15.03750038,151.5562592,
15.04583359,151.8262482,
15.05416679,151.6770935,
15.0625,151.2411346,
15.07083321,151.6254883,
15.07916641,151.5052948,
15.08749962,151.3159027,
15.09583378,151.5520935,
15.10416698,151.4441376,
15.11250019,151.7317505,
15.1208334,151.4725189,
15.1291666,151.4161072,
15.13749981,151.492218,
15.14583302,151.9641724,
15.15416622,151.3687744,
15.16250038,151.8674927,
15.17083359,151.4828644,
15.17916679,151.5587158,
15.1875,151.5555267,
15.19583321,151.4034882,
15.20416641,151.8695984,
15.21249962,151.3739166,
15.22083378,151.6191559,
15.22916698,151.6844482,
15.23750019,151.3946838,
15.2458334,151.6465759,
15.2541666,151.3580933,
15.26249981,151.516922,
15.27083302,151.305481,
15.27916622,151.0466461,
15.28750038,151.1211243,
15.29583359,151.288269,
15.30416679,151.0252075,
15.3125,150.8835144,
15.32083321,151.473587,
15.32916641,151.2827759,
15.33749962,151.1398468,
15.34583378,151.3946533,
15.35416698,151.0968628,
15.36250019,151.3462524,
15.3708334,151.6708679,
15.3791666,151.2434692,
15.38749981,151.2789459,
15.39583302,151.2879486,
15.40416622,151.3204041,
15.41250038,151.1969604,
15.42083359,151.2536469,
15.42916679,151.3639984,
15.4375,151.2103577,
15.44583321,151.3774567,
15.45416641,151.4058685,
15.46249962,151.4716492,
15.47083378,150.9862366,
15.47916698,151.1628113,
15.48750019,151.1737823,
15.4958334,151.2793884,
15.5041666,151.1776428,
15.51249981,151.492218,
15.52083302,151.0915833,
15.52916622,151.6227264,
15.53750038,151.4564056,
15.54583359,151.3004608,
15.55416679,151.1774292,
15.5625,151.1388397,
15.57083321,151.0460205,
15.57916641,151.3460388,
15.58749962,150.8336182,
15.59583378,151.1188965,
15.60416698,151.5685883,
15.61250019,150.8815155,
15.6208334,151.0629272,
15.6291666,151.0828094,
15.63749981,151.1475677,
15.64583302,150.8499451,
15.65416622,151.0315094,
15.66250038,150.8675232,
15.67083359,151.1039276,
15.67916679,151.2049713,
15.6875,151.1639404,
15.69583321,151.1768036,
15.70416641,150.9499817,
15.71249962,150.9625244,
15.72083378,151.2251892,
15.72916698,151.277359,
15.73750019,151.4551239,
15.7458334,151.2624817,
15.7541666,151.4167328,
15.76249981,151.1737366,
15.77083302,151.0686035,
15.77916622,150.8820953,
15.78750038,150.932785,
15.79583359,150.6299591,
15.80416679,150.6967926,
15.8125,150.9135132,
15.82083321,150.988205,
15.82916641,150.7828827,
15.83749962,150.8461761,
15.84583378,150.756424,
15.85416698,151.2171021,
15.86250019,151.1589661,
15.8708334,150.7123871,
15.8791666,150.9094543,
15.88749981,151.2104492,
15.89583302,150.9748535,
15.90416622,151.2170258,
15.91250038,151.094101,
15.92083359,150.9701996,
15.92916679,151.0045319,
15.9375,151.0980072,
15.94583321,150.9673004,
15.95416641,150.7272186,
15.96249962,150.5596161,
15.97083378,151.3668976,
15.97916698,151.2355804,
15.98750019,151.2355042,
15.9958334,150.9565277,
16.00416756,150.6625671,
16.01250076,150.5873871,
16.02083397,150.8601532,
16.02916718,150.5024719,
16.03750038,150.5057983,
16.04583359,150.7829285,
16.05416679,150.7540894,
16.0625,150.7118988,
16.07083321,150.8345795,
16.07916641,150.6621094,
16.08749962,150.608902,
16.09583282,150.7092285,
16.10416603,150.7699738,
16.11249924,150.6121063,
16.12083244,150.5428467,
16.12916756,151.328949,
16.13750076,150.5030823,
16.14583397,150.6182709,
16.15416718,150.2750244,
16.16250038,150.7987061,
16.17083359,150.8516388,
16.17916679,150.7929382,
16.1875,150.3399963,
16.19583321,150.6588593,
16.20416641,150.5188599,
16.21249962,151.0686798,
16.22083282,150.8943634,
16.22916603,150.5769196,
16.23749924,150.9395752,
16.24583244,150.7428436,
16.25416756,150.7192078,
16.26250076,150.7395477,
16.27083397,150.7660217,
16.27916718,150.8605042,
16.28750038,150.5606689,
16.29583359,150.2673798,
16.30416679,150.5924683,
16.3125,150.4472961,
16.32083321,150.5785522,
16.32916641,150.595871,
16.33749962,150.4469147,
16.34583282,150.8891449,
16.35416603,150.5515594,
16.36249924,150.4356995,
16.37083244,150.5100861,
16.37916756,150.9021759,
16.38750076,150.5609894,
16.39583397,150.2299194,
16.40416718,150.3535919,
16.41250038,151.0447235,
16.42083359,150.7717743,
16.42916679,150.7989807,
16.4375,150.609848,
16.44583321,150.5802307,
16.45416641,150.5462341,
16.46249962,150.2879028,
16.47083282,150.5178375,
16.47916603,150.4243011,
16.48749924,150.8931427,
16.49583244,150.3899384,
16.50416756,150.6706848,
16.51250076,150.0801239,
16.52083397,150.6664429,
16.52916718,150.3287048,
16.53750038,150.3819885,
16.54583359,150.5136871,
16.55416679,150.5340881,
16.5625,150.8267975,
16.57083321,149.9634094,
16.57916641,150.0799713,
16.58749962,150.5399475,
16.59583282,150.527359,
16.60416603,150.6717224,
16.61249924,150.0202484,
16.62083244,150.2385101,
16.62916756,150.3693085,
16.63750076,150.5571442,
16.64583397,150.499527,
16.65416718,150.6285248,
16.66250038,150.1349487,
16.67083359,150.2740631,
16.67916679,150.032135,
16.6875,150.6786804,
16.69583321,150.015686,
16.70416641,150.1083374,
16.71249962,150.0050812,
16.72083282,150.264679,
16.72916603,150.8666077,
16.73749924,150.7140961,
16.74583244,150.2334137,
16.75416756,150.3311768,
16.76250076,150.5695953,
16.77083397,150.4748535,
16.77916718,150.6183319,
16.78750038,150.7774811,
16.79583359,150.5431824,
16.80416679,150.2202301,
16.8125,150.3606415,
16.82083321,150.5822144,
16.82916641,150.4093018,
16.83749962,150.7169647,
16.84583282,150.2089539,
16.85416603,150.3847809,
16.86249924,150.4559174,
16.87083244,150.3099823,
16.87916756,150.3065033,
16.88750076,150.4424438,
16.89583397,150.6953125,
16.90416718,150.0689392,
16.91250038,149.9547119,
16.92083359,150.0577393,
16.92916679,150.607193,
16.9375,150.1076202,
16.94583321,149.9360657,
16.95416641,150.2868652,
16.96249962,149.9807281,
16.97083282,150.0853271,
16.97916603,150.3744202,
16.98749924,150.4235077,
16.99583244,150.210907,
17.00416756,150.2463226,
17.01250076,150.1404877,
17.02083397,150.0554657,
17.02916718,149.8555603,
17.03750038,150.1167755,
17.04583359,150.1447601,
17.05416679,150.2150879,
17.0625,150.2646332,
17.07083321,150.0888214,
17.07916641,149.8920135,
17.08749962,150.2126465,
17.09583282,149.8730774,
17.10416603,150.2743073,
17.11249924,150.83255,
17.12083244,150.2710419,
17.12916756,150.4110718,
17.13750076,150.2434845,
17.14583397,150.1569366,
17.15416718,150.2982483,
17.16250038,150.2532806,
17.17083359,150.0933838,
17.17916679,150.0725555,
17.1875,150.1638336,
17.19583321,149.637558,
17.20416641,150.4998322,
17.21249962,150.0859985,
17.22083282,149.8937683,
17.22916603,150.1324615,
17.23749924,150.0943756,
17.24583244,150.0189056,
17.25416756,150.0745087,
17.26250076,150.3173676,
17.27083397,150.3331451,
17.27916718,149.7944031,
17.28750038,150.1971436,
17.29583359,150.1912842,
17.30416679,150.0925903,
17.3125,149.7952728,
17.32083321,150.2006836,
17.32916641,149.5243225,
17.33749962,150.1101379,
17.34583282,149.7430115,
17.35416603,149.9073029,
17.36249924,149.9126129,
17.37083244,149.8449249,
17.37916756,150.1062622,
17.38750076,150.1020355,
17.39583397,149.4722748,
17.40416718,150.4687195,
17.41250038,149.9081268,
17.42083359,150.1318207,
17.42916679,150.2464294,
17.4375,149.8904419,
17.44583321,150.0719452,
17.45416641,149.727417,
17.46249962,150.0190887,
17.47083282,149.9128265,
17.47916603,149.8318329,
17.48749924,149.9566193,
17.49583244,149.9449921,
17.50416756,150.2154388,
17.51250076,149.9578857,
17.52083397,150.2984619,
17.52916718,150.1946564,
17.53750038,149.9277191,
17.54583359,149.6486511,
17.55416679,149.9584808,
17.5625,149.7915802,
17.57083321,149.5910187,
17.57916641,149.689682,
17.58749962,149.3942719,
17.59583282,149.6054382,
17.60416603,149.7907257,
17.61249924,149.9417114,
17.62083244,149.5687714,
17.62916756,149.998291,
17.63750076,149.5181427,
17.64583397,150.4617615,
17.65416718,149.8101807,
17.66250038,149.7163544,
17.67083359,150.0457153,
17.67916679,149.6405029,
17.6875,149.4007111,
17.69583321,149.837616,
17.70416641,149.8412628,
17.71249962,149.6158447,
17.72083282,150.1890259,
17.72916603,149.6248169,
17.73749924,149.9057007,
17.74583244,149.2181091,
17.75416756,150.287323,
17.76250076,149.5534821,
17.77083397,149.9267883,
17.77916718,149.5296783,
17.78750038,149.5982666,
17.79583359,149.5570068,
17.80416679,150.3778534,
17.8125,150.0835724,
17.82083321,149.9412994,
17.82916641,149.7489624,
17.83749962,149.7998199,
17.84583282,150.4194946,
17.85416603,149.5241394,
17.86249924,150.2379303,
17.87083244,149.6452942,
17.87916756,149.7696228,
17.88750076,149.8414307,
17.89583397,149.9205322,
17.90416718,149.6695099,
17.91250038,149.6318207,
17.92083359,149.2718964,
17.92916679,149.5682068,
17.9375,149.8420105,
17.94583321,149.8684692,
17.95416641,149.5452576,
17.96249962,149.5201874,
17.97083282,149.5338898,
17.97916603,149.6992188,
17.98749924,149.661438,
17.99583244,149.5590057,
18.00416756,149.3380127,
18.01250076,149.8114929,
18.02083397,149.6519623,
18.02916718,149.7428589,
18.03750038,149.490921,
18.04583359,149.8717499,
18.05416679,149.6255646,
18.0625,149.7512054,
18.07083321,149.9683533,
18.07916641,149.51828,
18.08749962,149.672287,
18.09583282,149.752594,
18.10416603,149.3575439,
18.11249924,149.0786896,
18.12083244,149.4084473,
18.12916756,149.4252777,
18.13750076,149.536377,
18.14583397,149.7787781,
18.15416718,149.5455017,
18.16250038,149.2892761,
18.17083359,149.1761169,
18.17916679,149.5284882,
18.1875,149.6457977,
18.19583321,149.7619476,
18.20416641,149.5288239,
18.21249962,149.0222626,
18.22083282,149.6413727,
18.22916603,148.9120026,
18.23749924,149.6497345,
18.24583244,149.5830078,
18.25416756,149.3362122,
18.26250076,149.3858337,
18.27083397,149.4382629,
18.27916718,149.3605042,
18.28750038,149.075531,
18.29583359,149.2622681,
18.30416679,149.0298615,
18.3125,149.5081787,
18.32083321,149.8034058,
18.32916641,148.9844971,
18.33749962,149.2383118,
18.34583282,149.4433594,
18.35416603,149.7148285,
18.36249924,149.3277588,
18.37083244,149.4675751,
18.37916756,149.4744568,
18.38750076,149.5859985,
18.39583397,149.4075775,
18.40416718,149.3966217,
18.41250038,149.4832306,
18.42083359,149.4874115,
18.42916679,149.4862061,
18.4375,149.5454559,
18.44583321,149.5671387,
18.45416641,149.2983093,
18.46249962,149.2836456,
18.47083282,149.4574127,
18.47916603,149.3857117,
18.48749924,149.2680511,
18.49583244,149.6156921,
18.50416756,149.4754333,
18.51250076,149.098999,
18.52083397,149.4637756,
18.52916718,149.3619385,
18.53750038,149.0631866,
18.54583359,149.5476837,
18.55416679,149.2836609,
18.5625,149.5252075,
18.57083321,149.2317047,
18.57916641,149.4302673,
18.58749962,149.2302246,
18.59583282,149.3394165,
18.60416603,149.3696289,
18.61249924,149.0040131,
18.62083244,149.088028,
18.62916756,149.598114,
18.63750076,149.3099823,
18.64583397,149.0420837,
18.65416718,149.585434,
18.66250038,148.7574463,
18.67083359,148.9561615,
18.67916679,149.0958252,
18.6875,149.2695007,
18.69583321,149.2970123,
18.70416641,149.1225281,
18.71249962,148.9603271,
18.72083282,149.0359192,
18.72916603,149.1554108,
18.73749924,148.9031982,
18.74583244,148.9159698,
18.75416756,149.4508057,
18.76250076,148.9365692,
18.77083397,149.0428467,
18.77916718,149.2155151,
18.78750038,149.1820374,
18.79583359,149.4135132,
18.80416679,148.7591553,
18.8125,149.0189819,
18.82083321,148.9950409,
18.82916641,148.9871826,
18.83749962,149.2928619,
18.84583282,149.3316803,
18.85416603,149.1807404,
18.86249924,148.8247223,
18.87083244,148.8235016,
18.87916756,149.230484,
18.88750076,148.7877808,
18.89583397,149.2476501,
18.90416718,149.368927,
18.91250038,148.8879547,
18.92083359,149.4399872,
18.92916679,149.3201904,
18.9375,148.9563141,
18.94583321,149.0032043,
18.95416641,149.0860138,
18.96249962,149.4402618,
18.97083282,148.6991272,
18.97916603,148.9288177,
18.98749924,149.3471832,
18.99583244,149.1547546,
19.00416756,148.7300415,
19.01250076,149.2440033,
19.02083397,149.5393066,
19.02916718,149.2457275,
19.03750038,149.2272644,
19.04583359,149.3909302,
19.05416679,149.0775452,
19.0625,149.4201202,
19.07083321,148.8408813,
19.07916641,149.5628967,
19.08749962,149.3073578,
19.09583282,148.9302368,
19.10416603,149.0345154,
19.11249924,148.9418945,
19.12083244,149.5084381,
19.12916756,149.2094879,
19.13750076,149.3549957,
19.14583397,149.1170807,
19.15416718,149.3422852,
19.16250038,148.6495667,
19.17083359,149.2199707,
19.17916679,149.3989868,
19.1875,148.6444397,
19.19583321,149.2234802,
19.20416641,148.9954529,
19.21249962,149.3132172,
19.22083282,148.7817688,
19.22916603,149.4321136,
19.23749924,149.2167664,
19.24583244,148.8782043,
19.25416756,149.1295471,
19.26250076,148.9025879,
19.27083397,149.0674133,
19.27916718,149.1573792,
19.28750038,148.8706055,
19.29583359,149.1066132,
19.30416679,149.2887268,
19.3125,149.1163483,
19.32083321,148.940918,
19.32916641,148.6052856,
19.33749962,149.0672455,
19.34583282,149.3368835,
19.35416603,149.1663208,
19.36249924,149.4021301,
19.37083244,148.9512939,
19.37916756,149.1250458,
19.38750076,149.216095,
19.39583397,148.8064423,
19.40416718,149.0754242,
19.41250038,148.8617859,
19.42083359,148.9416809,
19.42916679,149.0705261,
19.4375,148.7962646,
19.44583321,148.9207916,
19.45416641,148.8800354,
19.46249962,148.706131,
19.47083282,149.047226,
19.47916603,149.1345367,
19.48749924,149.0399017,
19.49583244,148.9329071,
19.50416756,149.243576,
19.51250076,149.2896881,
19.52083397,148.7789307,
19.52916718,148.9859772,
19.53750038,148.8995209,
19.54583359,148.8181152,
19.55416679,148.996109,
19.5625,149.0450745,
19.57083321,149.1425934,
19.57916641,148.6751099,
19.58749962,148.9733887,
19.59583282,149.1020508,
19.60416603,148.9548492,
19.61249924,148.997467,
19.62083244,148.8430939,
19.62916756,149.0583496,
19.63750076,148.5205688,
19.64583397,148.6062927,
19.65416718,149.4063568,
19.66250038,149.0587769,
19.67083359,148.7512817,
19.67916679,148.862442,
19.6875,149.0014648,
19.69583321,148.6481476,
19.70416641,148.6365509,
19.71249962,149.046814,
19.72083282,148.9700317,
19.72916603,149.427948,
19.73749924,149.5065918,
19.74583244,149.005188,
19.75416756,149.0173645,
19.76250076,149.0540771,
19.77083397,148.4286499,
19.77916718,148.8448486,
19.78750038,148.8114319,
19.79583359,149.1101227,
19.80416679,148.7006378,
19.8125,148.6185608,
19.82083321,148.8341217,
19.82916641,148.8842468,
19.83749962,148.5609741,
19.84583282,148.8049927,
19.85416603,148.666153,
19.86249924,148.6759033,
19.87083244,148.7814484,
19.87916756,149.0126495,
19.88750076,149.0338135,
19.89583397,148.8921051,
19.90416718,148.8973236,
19.91250038,148.6462555,
19.92083359,149.0090485,
19.92916679,148.5607605,
19.9375,148.6548157,
19.94583321,148.8008881,
19.95416641,148.7375488,
19.96249962,148.8761597,
19.97083282,148.6055145,
19.97916603,148.7830963,
19.98749924,148.88414,
19.99583244,149.2968445,

