1,,
Time (min),Intensity (a.u.),
0.0008333333535,350.1677551,
0.002500000177,351.6835938,
0.004166666884,354.1168213,
0.005833333358,352.4228821,
0.007500000298,351.0476074,
0.009166667238,350.1280518,
0.01083333418,352.2174683,
0.01250000019,350.1498413,
0.01416666713,352.0753479,
0.01583333313,349.5410461,
0.01750000194,350.8514709,
0.01916666701,350.7690735,
0.02083333395,349.8314819,
0.02250000089,351.7177124,
0.02416666783,350.8243408,
0.02583333477,350.8523865,
0.02749999985,352.526062,
0.02916666679,351.7129211,
0.03083333373,353.1893005,
0.03250000253,353.3026428,
0.03416666761,351.1949768,
0.03583333641,347.8445435,
0.03750000149,353.6766663,
0.03916667029,352.9404297,
0.04083333537,352.6468201,
0.04250000045,353.6964417,
0.04416666925,350.6328735,
0.04583333433,350.2327881,
0.04750000313,351.2186279,
0.04916666821,353.3099365,
0.05083333328,355.4802551,
0.05250000209,357.9825134,
0.05416666716,355.229126,
0.05583333597,352.0223389,
0.05750000104,346.4437256,
0.05916666612,352.8586426,
0.06083333492,351.4989319,
0.0625,353.230835,
0.06416667253,351.0613403,
0.0658333376,354.4313049,
0.06750000268,353.7046509,
0.06916666776,355.8828125,
0.07083333284,357.6134949,
0.07249999791,360.0016174,
0.07416667044,354.8135681,
0.07583333552,356.4478149,
0.0775000006,357.1695862,
0.07916666567,356.8885193,
0.08083333075,354.1560364,
0.08250000328,352.5026245,
0.08416666836,357.4810791,
0.08583333343,356.9895325,
0.08749999851,353.0955811,
0.08916666359,360.0856018,
0.09083333611,350.8445435,
0.09250000119,355.8301697,
0.09416666627,360.3284912,
0.09583333135,353.9332581,
0.09749999642,355.4166565,
0.09916666895,355.4920654,
0.100833334,352.4587402,
0.1024999991,351.3139954,
0.1041666642,353.6110535,
0.1058333293,352.1083679,
0.1075000018,353.6599426,
0.1091666669,352.537323,
0.1108333319,354.6646423,
0.112499997,353.5970459,
0.1141666621,352.1401367,
0.1158333346,355.7745667,
0.1174999997,353.3946838,
0.1191666648,357.070343,
0.1208333299,356.9536743,
0.1224999949,352.3836365,
0.1241666749,355.2948303,
0.1258333325,353.2423706,
0.1274999976,355.3908386,
0.1291666627,353.3197632,
0.1308333278,355.6464539,
0.1325000077,352.7541504,
0.1341666728,354.7173767,
0.1358333379,353.0770569,
0.137500003,350.6852112,
0.1391666681,350.8514099,
0.1408333331,354.9408264,
0.1424999982,355.4196472,
0.1441666782,355.0261536,
0.1458333284,354.1662598,
0.1475000083,354.0248718,
0.1491666585,351.5222778,
0.1508333385,355.4820251,
0.1525000036,352.4967651,
0.1541666687,355.4120483,
0.1558333337,354.8811646,
0.1574999988,355.3145447,
0.1591666639,352.6472168,
0.1608333439,355.3441162,
0.162499994,354.2305908,
0.164166674,357.4012756,
0.1658333242,353.6184692,
0.1675000042,352.1370544,
0.1691666692,351.8994446,
0.1708333343,353.0728149,
0.1724999994,352.5220032,
0.1741666645,354.6569519,
0.1758333296,353.5342407,
0.1775000095,355.6622009,
0.1791666597,354.538208,
0.1808333397,357.3103638,
0.1824999899,352.5421143,
0.1841666698,354.4058533,
0.1858333498,355.256897,
0.1875,352.0244446,
0.18916668,356.2875366,
0.1908333302,359.8566284,
0.1925000101,354.079895,
0.1941666752,351.9817505,
0.1958333403,355.8135986,
0.1975000054,352.505188,
0.1991666704,353.319519,
0.2008333355,353.036377,
0.2025000155,353.3204956,
0.2041666657,353.4758911,
0.2058333457,353.2567749,
0.2074999958,351.5613098,
0.2091666758,357.3096008,
0.2108333409,352.9941101,
0.212500006,355.9515076,
0.214166671,353.2091675,
0.2158333361,354.8254395,
0.2175000012,351.1209412,
0.2191666812,358.1547852,
0.2208333313,358.9510803,
0.2225000113,351.3312683,
0.2241666615,352.8320618,
0.2258333415,359.0353699,
0.2275000066,354.8197632,
0.2291666716,356.6354065,
0.2308333367,357.8715515,
0.2325000018,357.1260071,
0.2341666669,357.374176,
0.2358333468,355.1335754,
0.237499997,352.0731201,
0.239166677,355.6384277,
0.2408333272,354.8822937,
0.2425000072,354.8374023,
0.2441666722,353.5037231,
0.2458333373,354.9776917,
0.2475000024,352.2445679,
0.2491666675,358.3804016,
0.2508333325,355.7048645,
0.2524999976,353.8381348,
0.2541666627,351.7114563,
0.2558333278,356.1900635,
0.2574999928,360.700592,
0.2591666579,357.2034607,
0.2608333528,352.0540771,
0.2624999881,353.9136963,
0.264166683,355.8888245,
0.2658333182,355.5227966,
0.2675000131,356.8880615,
0.2691666484,353.6023254,
0.2708333433,358.3249207,
0.2725000083,354.2287292,
0.2741666734,356.6716309,
0.2758333385,356.1166077,
0.2775000036,356.6939392,
0.2791666687,350.7770691,
0.2808333337,353.5542603,
0.2824999988,355.1927185,
0.2841666937,354.1776428,
0.285833329,356.3929749,
0.287499994,352.6521301,
0.2891666591,354.2892456,
0.290833354,354.6452637,
0.2925000191,354.0639648,
0.2941666543,357.5354919,
0.2958333194,354.2531738,
0.2975000143,355.1171875,
0.2991666794,354.6368408,
0.3008333445,349.6470947,
0.3024999797,355.2141113,
0.3041666746,353.4536438,
0.3058333397,356.2844849,
0.3075000048,354.3136902,
0.3091666996,354.4005737,
0.3108333349,355.5208435,
0.3125,355.2618103,
0.3141666651,348.2628479,
0.31583336,354.0051575,
0.317500025,353.7455444,
0.3191666603,353.340332,
0.3208333254,353.7555542,
0.3225000203,352.4133606,
0.3241666853,351.0624695,
0.3258333504,357.1257019,
0.3274999857,356.3882446,
0.3291666806,354.0422668,
0.3308333457,354.344635,
0.3325000107,355.8882751,
0.3341666758,356.8000793,
0.3358333409,353.5798645,
0.337500006,352.3813782,
0.339166671,350.4066772,
0.3408333361,350.8302307,
0.342500031,355.7451477,
0.3441666663,355.4416809,
0.3458333313,353.5811157,
0.3474999964,351.393158,
0.3491666913,352.4997253,
0.3508333564,356.3233032,
0.3524999917,353.9129944,
0.3541666567,357.2337036,
0.3558333516,353.4030151,
0.3575000167,353.0819702,
0.3591666818,352.1289673,
0.360833317,353.6530762,
0.3625000119,353.1459351,
0.364166677,351.5482788,
0.3658333421,354.4158936,
0.3675000072,354.8529053,
0.3691666722,352.822998,
0.3708333373,351.4205933,
0.3725000024,352.5018311,
0.3741666675,353.113739,
0.3758333623,354.478302,
0.3774999976,352.8722229,
0.3791666627,352.0393372,
0.3808333278,352.8785706,
0.3825000226,355.7526245,
0.3841666877,353.1872559,
0.385833323,350.0315857,
0.3874999881,354.4624329,
0.389166683,350.8388672,
0.390833348,348.6375122,
0.3925000131,351.4294128,
0.3941666484,352.2102051,
0.3958333433,350.7694397,
0.3975000083,351.9828186,
0.3991666734,351.6379089,
0.4008333385,354.5864563,
0.4025000036,353.196106,
0.4041666687,354.45578,
0.4058333337,352.7525024,
0.4074999988,352.1624756,
0.4091666937,352.8665771,
0.410833329,355.3348389,
0.412499994,351.905304,
0.4141666591,352.7610168,
0.415833354,352.026062,
0.4175000191,355.8173523,
0.4191666543,354.1102905,
0.4208333194,352.5925903,
0.4225000143,350.0545349,
0.4241666794,355.179718,
0.4258333445,353.2279968,
0.4274999797,353.7246704,
0.4291666746,352.7709656,
0.4308333397,352.6080933,
0.4325000048,354.5250854,
0.4341666996,355.0263672,
0.4358333349,353.3156128,
0.4375,355.4617004,
0.4391666651,354.1635437,
0.44083336,353.9254456,
0.442500025,354.9674683,
0.4441666603,353.894104,
0.4458333254,351.2091675,
0.4475000203,356.5348206,
0.4491666853,353.8968201,
0.4508333504,358.1504822,
0.4524999857,357.3580933,
0.4541666806,352.6121826,
0.4558333457,354.2703857,
0.4575000107,355.939209,
0.4591666758,352.8548584,
0.4608333409,355.9080811,
0.462500006,356.9674683,
0.464166671,356.2941589,
0.4658333361,356.438446,
0.467500031,353.155426,
0.4691666663,354.5151978,
0.4708333313,353.6965332,
0.4724999964,355.4980774,
0.4741666913,354.1127625,
0.4758333564,351.0744324,
0.4774999917,352.3536072,
0.4791666567,352.4177246,
0.4808333516,351.161499,
0.4825000167,353.574707,
0.4841666818,353.8613892,
0.485833317,356.0695496,
0.4875000119,353.4350586,
0.489166677,357.2686462,
0.4908333421,352.245575,
0.4925000072,351.4009094,
0.4941666722,352.3716431,
0.4958333373,353.5536499,
0.4975000024,352.7372742,
0.4991666675,352.6744385,
0.5008333325,352.670929,
0.5024999976,352.9960327,
0.5041666627,353.5274353,
0.5058333278,355.8416443,
0.5074999928,351.9350281,
0.5091666579,355.9587097,
0.510833323,352.3349609,
0.5124999881,353.062439,
0.5141666532,354.2034912,
0.5158333182,353.3108826,
0.5175000429,353.7430115,
0.5191666484,355.7574463,
0.5208333135,350.2048645,
0.5224999785,351.1598206,
0.5241667032,351.258728,
0.5258333683,352.5608521,
0.5274999738,349.2377625,
0.5291666389,348.9460449,
0.5308333635,349.5234985,
0.5325000286,352.7237549,
0.5341666341,349.6582642,
0.5358333588,350.8506775,
0.5375000238,350.0638733,
0.5391666889,348.3262939,
0.540833354,349.7463684,
0.5424999595,348.8976135,
0.5441666842,351.3756409,
0.5458333492,350.4858093,
0.5475000143,352.0545959,
0.5491666794,351.6463013,
0.5508333445,352.0470581,
0.5525000095,354.021759,
0.5541666746,349.8757019,
0.5558333993,350.7368469,
0.5575000048,350.5843201,
0.5591666698,355.5424194,
0.5608333349,353.9158936,
0.5625,352.635376,
0.5641667247,356.2806091,
0.5658333302,353.0612488,
0.5674999952,353.9858093,
0.5691667199,354.9404297,
0.5708333254,353.7784119,
0.5725000501,353.4029541,
0.5741666555,353.1867065,
0.5758333206,354.7051392,
0.5775000453,355.1784668,
0.5791666508,352.272583,
0.5808333755,351.0540466,
0.5825000405,354.5066223,
0.584166646,355.4243774,
0.5858333707,353.6871948,
0.5874999762,352.958374,
0.5891667008,355.6636658,
0.5908333659,352.5661926,
0.5924999714,356.4842224,
0.5941666961,353.3613586,
0.5958333611,355.3041382,
0.5975000262,352.7345276,
0.5991666913,353.6385498,
0.6008332968,352.9512329,
0.6025000215,353.806488,
0.6041666865,352.605896,
0.6058333516,352.8330994,
0.6075000167,356.0139771,
0.6091666818,352.7634888,
0.6108333468,350.7616882,
0.6125000119,351.9006653,
0.614166677,350.2207031,
0.6158333421,352.5707703,
0.6175000072,354.8890381,
0.6191666722,353.0019531,
0.6208333373,355.2414551,
0.622500062,351.2246094,
0.6241666675,351.5479431,
0.6258333325,352.0526428,
0.6274999976,350.3562927,
0.6291666627,352.1502075,
0.6308333874,353.1833191,
0.6324999928,353.3282166,
0.6341666579,353.210144,
0.6358333826,353.9564514,
0.6374999881,351.4898071,
0.6391667128,354.033844,
0.6408333182,354.4260254,
0.6424999833,351.6929016,
0.644166708,352.3834839,
0.6458333135,353.2615051,
0.6475000381,350.625946,
0.6491667032,352.6352844,
0.6508333087,351.3248291,
0.6525000334,351.519043,
0.6541666389,352.5636902,
0.6558333635,356.6678772,
0.6575000286,355.2074585,
0.6591666341,351.5845947,
0.6608333588,353.1763,
0.6625000238,356.4560242,
0.6641666889,355.462738,
0.665833354,352.5159302,
0.6674999595,352.4690857,
0.6691666842,353.7237854,
0.6708333492,353.6162109,
0.6725000143,354.6907654,
0.6741666794,351.9317322,
0.6758333445,350.9212341,
0.6775000095,353.1894531,
0.6791666746,351.3374939,
0.6808333993,351.9338379,
0.6825000048,351.5471191,
0.6841666698,352.6032715,
0.6858333349,351.3540344,
0.6875,350.4384766,
0.6891667247,350.4326477,
0.6908333302,351.8626404,
0.6924999952,354.7063293,
0.6941667199,353.6897278,
0.6958333254,353.5200806,
0.6975000501,353.3772888,
0.6991666555,351.5231323,
0.7008333206,353.279541,
0.7025000453,351.7537842,
0.7041666508,353.2498169,
0.7058333755,352.9887695,
0.7075000405,352.2167358,
0.709166646,354.3555298,
0.7108333707,353.3981323,
0.7124999762,356.9160461,
0.7141667008,355.9214783,
0.7158333659,354.4129333,
0.7174999714,352.6744995,
0.7191666961,354.0036316,
0.7208333611,350.8735046,
0.7225000262,350.2261353,
0.7241666913,351.6781616,
0.7258332968,353.6697693,
0.7275000215,355.3883362,
0.7291666865,352.4230347,
0.7308333516,353.6314392,
0.7325000167,350.3598938,
0.7341666818,354.7954407,
0.7358333468,351.6900635,
0.7375000119,349.4752197,
0.739166677,357.3756104,
0.7408333421,353.8427124,
0.7425000072,353.6842651,
0.7441666722,351.6271362,
0.7458333373,358.1817627,
0.747500062,355.2630005,
0.7491666675,357.4198608,
0.7508333325,355.3648682,
0.7524999976,352.6800842,
0.7541666627,356.7222595,
0.7558333874,353.2279968,
0.7574999928,350.2383728,
0.7591666579,351.1507263,
0.7608333826,354.2365112,
0.7624999881,354.3201599,
0.7641667128,348.3406677,
0.7658333182,351.9351196,
0.7674999833,351.5251465,
0.769166708,355.413269,
0.7708333135,352.1170044,
0.7725000381,352.2593689,
0.7741667032,350.1408691,
0.7758333087,352.5760803,
0.7775000334,349.4941101,
0.7791666389,350.5947571,
0.7808333635,355.5270996,
0.7825000286,349.4608154,
0.7841666341,351.0003662,
0.7858333588,353.9338074,
0.7875000238,356.6236572,
0.7891666889,350.5206909,
0.790833354,350.9796448,
0.7924999595,351.5462952,
0.7941666842,351.6058655,
0.7958333492,350.5950928,
0.7975000143,354.3857117,
0.7991666794,352.5033264,
0.8008333445,354.3358459,
0.8025000095,354.7349854,
0.8041666746,349.8468628,
0.8058333993,353.3278809,
0.8075000048,352.7332458,
0.8091666698,353.1758423,
0.8108333349,354.1924438,
0.8125,355.5995178,
0.8141667247,353.1668091,
0.8158333302,352.459137,
0.8174999952,353.6090088,
0.8191667199,353.6676636,
0.8208333254,355.1434326,
0.8225000501,353.8295288,
0.8241666555,353.3800659,
0.8258333206,350.4085388,
0.8275000453,355.5534973,
0.8291666508,352.4223328,
0.8308333755,353.2189636,
0.8325000405,352.2861633,
0.834166646,354.6929321,
0.8358333707,353.4209595,
0.8374999762,353.1264648,
0.8391667008,354.324646,
0.8408333659,352.852356,
0.8424999714,357.3289795,
0.8441666961,356.0603638,
0.8458333611,353.0179443,
0.8475000262,355.2234497,
0.8491666913,353.1690369,
0.8508332968,353.150238,
0.8525000215,353.7432251,
0.8541666865,355.6160889,
0.8558333516,351.2979126,
0.8575000167,350.2637329,
0.8591666818,357.3397522,
0.8608333468,353.2904053,
0.8625000119,352.8289185,
0.864166677,350.0651855,
0.8658333421,350.161377,
0.8675000072,350.1057739,
0.8691666722,352.6995544,
0.8708333373,351.3529053,
0.872500062,349.7948303,
0.8741666675,351.1137085,
0.8758333325,349.5427856,
0.8774999976,350.4942932,
0.8791666627,353.6729431,
0.8808333874,353.9821777,
0.8824999928,352.2254944,
0.8841666579,351.5162048,
0.8858333826,356.6620178,
0.8874999881,355.3164673,
0.8891667128,349.0393372,
0.8908333182,351.2727966,
0.8924999833,355.8697205,
0.894166708,353.9049072,
0.8958333135,355.5427856,
0.8975000381,355.2915344,
0.8991667032,351.5424194,
0.9008333087,351.5756226,
0.9025000334,350.467041,
0.9041666389,349.7471619,
0.9058333635,354.5787354,
0.9075000286,351.7198792,
0.9091666341,353.0921936,
0.9108333588,352.7493896,
0.9125000238,351.2662964,
0.9141666889,353.9990234,
0.915833354,354.4328308,
0.9174999595,349.0960388,
0.9191666842,353.3668823,
0.9208333492,350.1970215,
0.9225000143,350.3543701,
0.9241666794,350.5392761,
0.9258333445,351.4035645,
0.9275000095,350.2721558,
0.9291666746,351.0951843,
0.9308333993,353.3227234,
0.9325000048,352.1844177,
0.9341666698,353.7343445,
0.9358333349,351.1365662,
0.9375,353.5440063,
0.9391667247,351.5699463,
0.9408333302,353.0388184,
0.9424999952,351.9216003,
0.9441667199,356.4725647,
0.9458333254,351.4994202,
0.9475000501,351.0959778,
0.9491666555,350.2605286,
0.9508333206,352.4607544,
0.9525000453,350.6739502,
0.9541666508,349.5646362,
0.9558333755,350.59375,
0.9575000405,352.6060791,
0.959166646,351.1419067,
0.9608333707,352.1769409,
0.9624999762,349.7048645,
0.9641667008,352.2089539,
0.9658333659,352.8474121,
0.9674999714,350.308136,
0.9691666961,352.1596985,
0.9708333611,353.0970459,
0.9725000262,351.7984009,
0.9741666913,349.4858704,
0.9758332968,352.4703369,
0.9775000215,355.208252,
0.9791666865,352.269104,
0.9808333516,353.9154968,
0.9825000167,351.3198853,
0.9841666818,352.4561462,
0.9858333468,350.2164917,
0.9875000119,353.1824951,
0.989166677,353.0867615,
0.9908333421,351.4736633,
0.9925000072,351.4681091,
0.9941666722,349.7170715,
0.9958333373,351.6222839,
0.997500062,351.996521,
0.9991666675,351.6249084,
1.000833273,353.3468628,
1.002500057,352.1913452,
1.004166722,352.7241516,
1.005833387,353.2653198,
1.007500052,354.3009338,
1.009166598,350.1056213,
1.010833383,351.7975769,
1.012500048,350.8902283,
1.014166713,349.4338074,
1.015833378,349.8033752,
1.017500043,352.0301819,
1.019166708,355.4546204,
1.020833373,353.2256165,
1.022500038,353.3939209,
1.024166703,350.8875427,
1.025833368,352.0513916,
1.027500033,351.7383118,
1.029166698,351.8331909,
1.030833364,352.4526367,
1.032500029,350.6611023,
1.034166694,350.3771667,
1.035833359,352.9132996,
1.037500024,354.265686,
1.039166689,353.4828491,
1.040833354,354.0688171,
1.042500019,352.0612183,
1.044166684,352.1280518,
1.045833349,353.190033,
1.047500014,352.2164307,
1.049166679,350.8513489,
1.050833344,352.0906067,
1.05250001,352.1274109,
1.054166675,351.3046265,
1.05583334,351.3430786,
1.057500005,351.4969177,
1.05916667,353.1266785,
1.060833335,351.1517944,
1.0625,352.3725891,
1.064166665,354.0903625,
1.06583333,352.2113342,
1.067499995,353.5639954,
1.06916666,350.8362732,
1.070833325,352.3832703,
1.07249999,352.266449,
1.074166775,351.5913086,
1.07583344,353.8219299,
1.077499986,354.6811829,
1.079166651,350.6000977,
1.080833316,351.2825317,
1.0825001,352.5598145,
1.084166765,352.9168396,
1.085833311,351.1468506,
1.087499976,353.5495605,
1.089166641,350.5656433,
1.090833426,352.8295898,
1.092500091,351.8680725,
1.094166636,350.7578735,
1.095833302,350.4553223,
1.097499967,351.5689087,
1.099166751,351.6578064,
1.100833416,351.4969788,
1.102500081,351.3671875,
1.104166627,351.7736511,
1.105833292,351.254364,
1.107500076,350.5704346,
1.109166741,354.9830627,
1.110833406,353.8177185,
1.112499952,352.683136,
1.114166617,353.3247375,
1.115833402,352.2538147,
1.117500067,353.6062622,
1.119166732,354.7722168,
1.120833278,351.9333496,
1.122499943,350.1232605,
1.124166727,352.3125916,
1.125833392,353.1408386,
1.127500057,353.0693665,
1.129166722,349.6247559,
1.130833268,351.6687622,
1.132500052,352.6379395,
1.134166718,353.0731506,
1.135833383,353.8920288,
1.137500048,352.1488342,
1.139166594,350.4754639,
1.140833378,354.8838806,
1.142500043,351.9047546,
1.144166708,353.1880493,
1.145833373,352.6121826,
1.147499919,353.4344177,
1.149166703,350.1393738,
1.150833368,350.0866699,
1.152500033,348.1123657,
1.154166698,349.7702637,
1.155833364,348.7186279,
1.157500029,352.2149963,
1.159166694,350.0593872,
1.160833359,351.70224,
1.162500024,348.0103149,
1.164166689,350.6703491,
1.165833354,350.1888428,
1.167500019,347.9858704,
1.169166684,351.2697144,
1.170833349,352.2954407,
1.172500014,354.6513977,
1.174166799,354.0378113,
1.175833344,355.4986267,
1.17750001,356.2335815,
1.179166675,349.1993408,
1.18083334,353.6965942,
1.182500124,350.8889771,
1.18416667,350.3693237,
1.185833335,350.7876892,
1.1875,350.3461304,
1.189166665,353.0931396,
1.190833449,354.0010986,
1.192499995,352.9361877,
1.19416666,351.9645691,
1.195833325,352.870697,
1.19749999,355.9903259,
1.199166775,349.7119141,
1.20083344,352.6502075,
1.202499986,355.5777283,
1.204166651,355.4233704,
1.205833316,352.7565918,
1.2075001,355.7666321,
1.209166765,350.5905762,
1.210833311,353.7833557,
1.212499976,349.8652039,
1.214166641,353.2400818,
1.215833426,349.7653198,
1.217500091,348.8999329,
1.219166636,356.9529419,
1.220833302,349.8250122,
1.222499967,351.4194336,
1.224166751,355.6918945,
1.225833416,357.1775208,
1.227500081,356.4713135,
1.229166627,353.3094788,
1.230833292,352.1626282,
1.232500076,350.4463501,
1.234166741,354.6176147,
1.235833406,350.7834778,
1.237499952,360.7549133,
1.239166617,352.2552185,
1.240833402,354.8066101,
1.242500067,351.2953186,
1.244166732,355.762085,
1.245833278,348.4759827,
1.247499943,353.1982727,
1.249166727,352.9979858,
1.250833392,352.4825745,
1.252500057,350.1159973,
1.254166722,350.2310791,
1.255833268,353.2739258,
1.257500052,354.4057922,
1.259166718,351.1670532,
1.260833383,351.122406,
1.262500048,352.2772217,
1.264166594,350.8120728,
1.265833378,350.8988037,
1.267500043,352.8105164,
1.269166708,352.9570313,
1.270833373,354.8831787,
1.272499919,349.9255371,
1.274166703,353.432312,
1.275833368,353.1995239,
1.277500033,352.8591919,
1.279166698,351.2055359,
1.280833364,350.7298584,
1.282500029,351.364502,
1.284166694,353.6376648,
1.285833359,350.9494324,
1.287500024,350.3832092,
1.289166689,347.8822937,
1.290833354,350.1687012,
1.292500019,352.4058533,
1.294166684,349.4933472,
1.295833349,349.3478394,
1.297500014,349.3377075,
1.299166799,349.3409729,
1.300833344,352.2230835,
1.30250001,352.5473633,
1.304166675,352.3128357,
1.30583334,351.769165,
1.307500124,350.446167,
1.30916667,352.7945251,
1.310833335,353.0055237,
1.3125,352.0445862,
1.314166665,352.7003174,
1.315833449,351.5869751,
1.317499995,347.9520874,
1.31916666,352.7848206,
1.320833325,350.9403076,
1.32249999,349.2576904,
1.324166775,353.1286011,
1.32583344,351.5010071,
1.327499986,350.875,
1.329166651,349.8464355,
1.330833316,352.6208801,
1.3325001,351.0265503,
1.334166765,348.7097778,
1.335833311,349.9194336,
1.337499976,348.8556824,
1.339166641,349.796051,
1.340833426,350.8186951,
1.342500091,352.0730286,
1.344166636,349.9087219,
1.345833302,350.5624084,
1.347499967,353.5639954,
1.349166751,348.2684631,
1.350833416,349.6791382,
1.352500081,352.7844543,
1.354166627,350.7921753,
1.355833292,349.9274292,
1.357500076,349.3108521,
1.359166741,351.381012,
1.360833406,349.9885559,
1.362499952,350.3812256,
1.364166617,351.4268188,
1.365833402,347.7492981,
1.367500067,351.8343506,
1.369166732,352.3243103,
1.370833278,350.6274414,
1.372499943,354.7507019,
1.374166727,350.5420532,
1.375833392,349.8460083,
1.377500057,351.6488647,
1.379166722,351.3337402,
1.380833268,349.260376,
1.382500052,351.9064636,
1.384166718,349.816925,
1.385833383,350.6803589,
1.387500048,349.4365845,
1.389166594,348.7958374,
1.390833378,351.1834412,
1.392500043,349.4246521,
1.394166708,350.2752686,
1.395833373,352.6209106,
1.397499919,350.0518799,
1.399166703,350.0842285,
1.400833368,352.0044556,
1.402500033,350.338623,
1.404166698,350.3930969,
1.405833364,349.4387207,
1.407500029,351.3203735,
1.409166694,351.5048218,
1.410833359,351.8790283,
1.412500024,351.3018494,
1.414166689,348.7074585,
1.415833354,351.8879395,
1.417500019,349.6348267,
1.419166684,351.3763733,
1.420833349,351.1657104,
1.422500014,350.9816895,
1.424166799,351.3063049,
1.425833344,351.7906799,
1.42750001,346.5837097,
1.429166675,349.4307251,
1.43083334,351.1808167,
1.432500124,350.1966553,
1.43416667,351.5521545,
1.435833335,353.4490662,
1.4375,351.7459717,
1.439166665,349.5032043,
1.440833449,351.613739,
1.442499995,351.5785217,
1.44416666,351.6624451,
1.445833325,351.9274902,
1.44749999,350.419281,
1.449166775,350.833252,
1.45083344,349.8813171,
1.452499986,350.8808289,
1.454166651,353.242981,
1.455833316,354.2291565,
1.4575001,353.3232117,
1.459166765,350.0364075,
1.460833311,350.0034485,
1.462499976,351.4097595,
1.464166641,350.7532654,
1.465833426,348.670105,
1.467500091,347.8998108,
1.469166636,349.3552246,
1.470833302,348.8283386,
1.472499967,351.3223267,
1.474166751,351.8731079,
1.475833416,352.9363403,
1.477500081,352.1457825,
1.479166627,350.4908142,
1.480833292,353.2820435,
1.482500076,349.7753906,
1.484166741,351.3201294,
1.485833406,352.0014648,
1.487499952,349.9666443,
1.489166617,350.4533691,
1.490833402,350.0995178,
1.492500067,352.3869324,
1.494166732,351.5247192,
1.495833278,352.9338379,
1.497499943,347.7275085,
1.499166727,349.1004028,
1.500833392,350.9898682,
1.502500057,349.2759094,
1.504166722,350.664917,
1.505833268,347.5299072,
1.507500052,349.3551331,
1.509166718,348.7413025,
1.510833383,349.238678,
1.512500048,323.3728027,
1.514166594,305.5654907,
1.515833378,307.3018188,
1.517500043,306.7511292,
1.519166708,295.4611206,
1.520833373,317.5036011,
1.522499919,337.8398438,
1.524166703,333.3374939,
1.525833368,330.9788513,
1.527500033,329.9284363,
1.529166698,329.7049561,
1.530833364,329.4454956,
1.532500029,329.3953247,
1.534166694,330.4947815,
1.535833359,331.8093262,
1.537500024,334.7895203,
1.539166689,340.8321838,
1.540833354,343.4937439,
1.542500019,347.1881409,
1.544166684,349.5265198,
1.545833349,348.7016907,
1.547500014,338.6807556,
1.549166799,334.9634705,
1.550833344,340.5862427,
1.55250001,316.5671082,
1.554166675,341.6184082,
1.55583334,331.4656982,
1.557500124,308.5039978,
1.55916667,322.8667908,
1.560833335,300.041687,
1.5625,329.4767761,
1.564166665,316.8121643,
1.565833449,315.09021,
1.567499995,326.7552185,
1.56916666,316.9984131,
1.570833325,326.2814941,
1.57249999,321.0119019,
1.574166775,305.9769592,
1.57583344,312.977478,
1.577499986,341.272522,
1.579166651,339.3916016,
1.580833316,340.9830322,
1.5825001,341.0629883,
1.584166765,341.946228,
1.585833311,340.0404968,
1.587499976,340.5900269,
1.589166641,340.1791992,
1.590833426,335.9442749,
1.592500091,339.3829651,
1.594166636,340.5301514,
1.595833302,338.0177002,
1.597499967,343.3996582,
1.599166751,338.7740479,
1.600833416,336.4784546,
1.602500081,339.2225952,
1.604166627,338.9927979,
1.605833292,334.5426025,
1.607500076,337.1708374,
1.609166741,336.7261353,
1.610833406,337.26651,
1.612499952,336.786377,
1.614166617,334.8916321,
1.615833402,337.2675781,
1.617500067,333.9187012,
1.619166732,337.1426392,
1.620833278,337.4512329,
1.622499943,334.9293823,
1.624166727,334.083252,
1.625833392,337.2389832,
1.627500057,336.9866943,
1.629166722,336.6043091,
1.630833268,335.8885498,
1.632500052,333.3518372,
1.634166718,333.3643188,
1.635833383,336.6351624,
1.637500048,334.0091553,
1.639166594,332.571991,
1.640833378,332.3553162,
1.642500043,333.6889343,
1.644166708,333.5588684,
1.645833373,330.9654541,
1.647499919,332.8664856,
1.649166703,333.4656677,
1.650833368,332.3773804,
1.652500033,331.5383911,
1.654166698,333.029541,
1.655833364,331.0472717,
1.657500029,331.1157837,
1.659166694,330.7598877,
1.660833359,329.2729187,
1.662500024,331.1239014,
1.664166689,331.5710144,
1.665833354,331.0248108,
1.667500019,327.6527405,
1.669166684,329.509613,
1.670833349,329.8703003,
1.672500014,328.9805908,
1.674166799,327.9674377,
1.675833344,328.3250122,
1.67750001,329.2296143,
1.679166675,329.263092,
1.68083334,326.843689,
1.682500124,328.4732971,
1.68416667,327.7167358,
1.685833335,328.3445129,
1.6875,330.2056274,
1.689166665,329.492981,
1.690833449,327.7993469,
1.692499995,327.0595703,
1.69416666,326.9281616,
1.695833325,330.0836182,
1.69749999,326.7636719,
1.699166775,327.9503479,
1.70083344,326.4863586,
1.702499986,324.0917053,
1.704166651,329.828064,
1.705833316,327.129425,
1.7075001,326.0508728,
1.709166765,326.2093201,
1.710833311,326.6370239,
1.712499976,327.1805115,
1.714166641,324.9198303,
1.715833426,326.5532227,
1.717500091,328.0053711,
1.719166636,325.1055908,
1.720833302,325.5376587,
1.722499967,324.8352051,
1.724166751,325.6801147,
1.725833416,325.5683899,
1.727500081,325.7728271,
1.729166627,323.717865,
1.730833292,324.2468872,
1.732500076,323.9292297,
1.734166741,324.2955933,
1.735833406,324.4959106,
1.737499952,326.2175598,
1.739166617,323.8684998,
1.740833402,325.385437,
1.742500067,325.1316528,
1.744166732,322.9107666,
1.745833278,323.6677856,
1.747499943,324.1471252,
1.749166727,323.7169189,
1.750833392,320.9366455,
1.752500057,320.7016296,
1.754166722,321.5498962,
1.755833268,321.3967285,
1.757500052,321.4828796,
1.759166718,323.9977417,
1.760833383,322.9537659,
1.762500048,321.4364624,
1.764166594,322.0439453,
1.765833378,321.5632935,
1.767500043,323.7320557,
1.769166708,321.649353,
1.770833373,321.3686523,
1.772499919,321.4443054,
1.774166703,322.5162659,
1.775833368,319.9061279,
1.777500033,320.8700867,
1.779166698,321.7148132,
1.780833364,319.4232178,
1.782500029,322.9615173,
1.784166694,321.8804321,
1.785833359,322.2532654,
1.787500024,321.8017883,
1.789166689,321.4085083,
1.790833354,320.8739929,
1.792500019,318.7719727,
1.794166684,319.4299622,
1.795833349,321.267334,
1.797500014,318.763092,
1.799166799,320.3829041,
1.800833344,319.7396545,
1.80250001,320.0877075,
1.804166675,320.0232239,
1.80583334,321.4812012,
1.807500124,318.8225403,
1.80916667,319.8660889,
1.810833335,316.1577148,
1.8125,317.1950684,
1.814166665,318.171936,
1.815833449,319.6600952,
1.817499995,320.6755981,
1.81916666,319.4614563,
1.820833325,319.940155,
1.82249999,318.602478,
1.824166775,316.2528381,
1.82583344,316.5129395,
1.827499986,316.8031616,
1.829166651,318.3832703,
1.830833316,317.7434998,
1.8325001,316.6891785,
1.834166765,317.0816345,
1.835833311,317.6827087,
1.837499976,315.8770752,
1.839166641,316.0279541,
1.840833426,315.7416382,
1.842500091,318.76828,
1.844166636,315.4668579,
1.845833302,316.5152893,
1.847499967,315.7553101,
1.849166751,314.1797791,
1.850833416,315.9370728,
1.852500081,317.107605,
1.854166627,316.8979492,
1.855833292,316.8374634,
1.857500076,316.2640686,
1.859166741,316.5656128,
1.860833406,318.2528381,
1.862499952,316.9020691,
1.864166617,318.0875854,
1.865833402,316.3711243,
1.867500067,315.0647888,
1.869166732,315.1458435,
1.870833278,316.6926575,
1.872499943,315.624054,
1.874166727,315.8996887,
1.875833392,315.4933777,
1.877500057,315.0365295,
1.879166722,313.6561279,
1.880833268,314.9145508,
1.882500052,315.9935303,
1.884166718,315.5995178,
1.885833383,314.6795349,
1.887500048,315.0978394,
1.889166594,313.7070313,
1.890833378,314.493927,
1.892500043,313.6616821,
1.894166708,312.9818115,
1.895833373,312.4923706,
1.897499919,314.1668396,
1.899166703,317.0376587,
1.900833368,313.776947,
1.902500033,311.8336487,
1.904166698,314.4502563,
1.905833364,314.1167603,
1.907500029,312.700592,
1.909166694,311.750946,
1.910833359,310.8132629,
1.912500024,310.7530518,
1.914166689,311.3340149,
1.915833354,311.7659302,
1.917500019,311.692627,
1.919166684,312.3179321,
1.920833349,309.3596497,
1.922500014,310.4827271,
1.924166799,311.0089722,
1.925833344,312.6441956,
1.92750001,311.0351257,
1.929166675,309.7485046,
1.93083334,312.021637,
1.932500124,310.0656433,
1.93416667,312.1421204,
1.935833335,309.6087341,
1.9375,310.094574,
1.939166665,312.0982056,
1.940833449,309.9425354,
1.942499995,311.1585999,
1.94416666,309.2829895,
1.945833325,309.4194031,
1.94749999,309.3326721,
1.949166775,309.9290161,
1.95083344,309.4781494,
1.952499986,310.2928467,
1.954166651,309.8764343,
1.955833316,310.6955566,
1.9575001,310.1948547,
1.959166765,309.0007019,
1.960833311,311.5308228,
1.962499976,310.9786377,
1.964166641,308.9077148,
1.965833426,310.6769104,
1.967500091,308.9694824,
1.969166636,311.2133484,
1.970833302,312.4380493,
1.972499967,311.0671082,
1.974166751,309.8001099,
1.975833416,312.5906982,
1.977500081,310.2052612,
1.979166627,309.3727112,
1.980833292,310.4578857,
1.982500076,309.6698914,
1.984166741,309.5255432,
1.985833406,310.3267212,
1.987499952,309.9851379,
1.989166617,310.8178711,
1.990833402,308.9109497,
1.992500067,309.0666809,
1.994166732,310.8525085,
1.995833278,309.9479675,
1.997499943,308.8557434,
1.999166727,311.1731262,
2.000833273,309.7096863,
2.002500057,307.9997864,
2.004166603,308.5009155,
2.005833387,309.4926147,
2.007500172,307.0336609,
2.009166718,309.9278564,
2.010833263,309.1495667,
2.012500048,306.108551,
2.014166594,309.1344604,
2.015833378,307.5229492,
2.017500162,308.3395081,
2.019166708,310.1432495,
2.020833254,309.426239,
2.022500038,308.4947205,
2.024166822,304.2947083,
2.025833368,306.8826599,
2.027499914,308.5977478,
2.029166698,307.427124,
2.030833244,306.7850037,
2.032500029,307.8340759,
2.034166813,308.0910034,
2.035833359,305.8348999,
2.037499905,306.8956909,
2.039166689,306.9362183,
2.040833473,306.1877747,
2.042500019,308.9217529,
2.044166803,307.2235413,
2.045833349,306.1008301,
2.047499895,306.9815369,
2.049166679,307.7088623,
2.050833464,308.6431274,
2.05250001,307.6356201,
2.054166555,306.4485474,
2.05583334,308.9013062,
2.057500124,307.6626892,
2.05916667,305.4243469,
2.060833454,308.119812,
2.0625,307.274353,
2.064166546,307.3112793,
2.06583333,304.9132385,
2.067500114,306.3377686,
2.06916666,305.852417,
2.070833445,307.7028198,
2.07249999,305.5619507,
2.074166775,307.4067993,
2.075833321,306.224823,
2.077500105,305.796936,
2.079166651,305.2363281,
2.080833197,305.5415039,
2.082499981,305.9991455,
2.084166765,304.4632874,
2.085833311,304.449585,
2.087500095,305.2707214,
2.089166641,305.0276489,
2.090833426,305.736145,
2.092499971,304.5745544,
2.094166756,306.5786133,
2.095833302,303.4451294,
2.097500086,308.0971985,
2.099166632,302.4105835,
2.100833416,306.2120972,
2.102499962,305.2738037,
2.104166746,303.9773254,
2.105833292,304.8752441,
2.107500076,302.9499512,
2.109166622,306.0091248,
2.110833406,302.835022,
2.112499952,304.0962524,
2.114166737,304.8127136,
2.115833521,304.8395081,
2.117500067,303.6093445,
2.119166613,303.1865845,
2.120833397,303.7096863,
2.122499943,303.2695313,
2.124166727,303.5421753,
2.125833273,304.4444275,
2.127500057,305.4497986,
2.129166603,304.5823669,
2.130833387,304.7757263,
2.132500172,304.0928345,
2.134166718,304.2578735,
2.135833502,307.8640747,
2.137500048,305.7864075,
2.139166832,304.4810486,
2.140833378,304.3746033,
2.142500162,301.7857056,
2.144166708,303.1780701,
2.145833254,304.8561096,
2.147500038,305.6234131,
2.149166584,302.2871704,
2.150833368,303.8381653,
2.152500153,304.1878357,
2.154166698,304.6495361,
2.155833483,301.3054199,
2.157500029,304.2501526,
2.159166813,303.1983948,
2.160833597,304.7449341,
2.162499905,303.1063232,
2.164166689,302.9987488,
2.165833235,303.5609131,
2.167500019,302.8216248,
2.169166803,302.8818665,
2.170833349,302.1908875,
2.172500134,304.901947,
2.174166679,304.1030273,
2.175833464,303.7398682,
2.177500248,302.7518311,
2.179166555,303.0401001,
2.18083334,302.7001038,
2.182499886,302.8276367,
2.18416667,302.2929382,
2.185833454,303.3399353,
2.1875,303.2430115,
2.189166784,301.712677,
2.19083333,305.3324585,
2.192500114,302.7304688,
2.194166899,304.2495728,
2.195833445,301.7499695,
2.19749999,302.6759338,
2.199166536,303.4639587,
2.200833321,300.7071533,
2.202500105,302.3079834,
2.204166651,300.0568237,
2.205833435,301.1105347,
2.207499981,302.9745178,
2.209166765,303.6673584,
2.210833549,302.8491821,
2.212500095,300.8285217,
2.21416688,303.5393982,
2.215833187,302.9657898,
2.217499971,301.5489502,
2.219166756,304.2009277,
2.220833302,300.5968018,
2.222500086,302.9434204,
2.224166632,302.1936035,
2.225833416,300.222168,
2.2275002,301.9117126,
2.229166746,301.0082397,
2.23083353,301.0350952,
2.232499838,301.3797302,
2.234166622,301.1402893,
2.235833406,301.4629517,
2.237499952,303.8178406,
2.239166737,301.5037537,
2.240833282,303.1034851,
2.242500067,303.243042,
2.244166851,298.9118347,
2.245833397,301.8543701,
2.247500181,302.4309998,
2.249166727,301.9121094,
2.250833273,302.4711914,
2.252500057,298.7987671,
2.254166603,300.4692688,
2.255833387,301.8539734,
2.257499933,299.9132996,
2.259166718,301.5736084,
2.260833502,302.3094177,
2.262500048,303.5708618,
2.264166832,301.0431519,
2.265833378,300.1753235,
2.267500162,297.0178833,
2.269166708,300.1428833,
2.270833254,300.5263977,
2.272500038,302.0598755,
2.274166584,301.1769714,
2.275833368,302.2109985,
2.277500153,304.1596069,
2.279166698,300.0209656,
2.280833483,299.4442139,
2.282500029,299.015686,
2.284166813,301.2168579,
2.285833597,300.1771851,
2.287499905,302.1994934,
2.289166689,302.0405884,
2.290833235,299.5209961,
2.292500019,300.5093079,
2.294166803,299.2991943,
2.295833349,299.5456238,
2.297500134,300.0901794,
2.299166679,301.684906,
2.300833464,301.8511353,
2.302500248,301.4020386,
2.304166555,299.609436,
2.30583334,300.609375,
2.307499886,301.1956787,
2.30916667,301.809967,
2.310833454,298.5674438,
2.3125,299.6100769,
2.314166784,299.394104,
2.31583333,299.2228394,
2.317500114,299.0347595,
2.319166899,300.6672668,
2.320833445,301.1361694,
2.32249999,299.3669434,
2.324166536,299.5935059,
2.325833321,299.1412048,
2.327500105,301.5275879,
2.329166651,298.6940613,
2.330833435,299.7067566,
2.332499981,298.8737183,
2.334166765,298.6151733,
2.335833549,298.2588196,
2.337500095,299.7913818,
2.33916688,298.95755,
2.340833187,299.0093079,
2.342499971,299.6824646,
2.344166756,299.9295349,
2.345833302,297.8320923,
2.347500086,299.1113892,
2.349166632,297.7255249,
2.350833416,296.2511597,
2.3525002,297.9571228,
2.354166746,297.1232605,
2.35583353,298.0439453,
2.357499838,297.5863342,
2.359166622,298.5521545,
2.360833406,298.4378052,
2.362499952,298.6011658,
2.364166737,297.9455261,
2.365833282,298.8972473,
2.367500067,297.0068054,
2.369166851,297.9362793,
2.370833397,296.3700867,
2.372500181,297.7317505,
2.374166727,298.6112061,
2.375833273,297.7321167,
2.377500057,298.7474365,
2.379166603,297.8451843,
2.380833387,297.9919434,
2.382499933,296.2275085,
2.384166718,298.0123901,
2.385833502,298.249115,
2.387500048,296.8627014,
2.389166832,297.7536621,
2.390833378,297.262207,
2.392500162,299.4746094,
2.394166708,297.710144,
2.395833254,297.6187439,
2.397500038,296.6495972,
2.399166584,296.7195435,
2.400833368,298.2629089,
2.402500153,298.6773682,
2.404166698,298.60849,
2.405833483,296.7587585,
2.407500029,297.1756897,
2.409166813,299.1626282,
2.410833597,297.3538818,
2.412499905,298.025116,
2.414166689,296.2808533,
2.415833235,298.6952515,
2.417500019,297.2732544,
2.419166803,299.4472961,
2.420833349,298.3364868,
2.422500134,297.1763306,
2.424166679,297.0900879,
2.425833464,296.7532959,
2.427500248,298.0723267,
2.429166555,297.2833252,
2.43083334,295.9577026,
2.432499886,295.7472534,
2.43416667,296.4665222,
2.435833454,297.9499512,
2.4375,294.8324585,
2.439166784,294.9238281,
2.44083333,297.9431763,
2.442500114,294.2825623,
2.444166899,296.6553345,
2.445833445,295.9881897,
2.44749999,296.0913696,
2.449166536,295.3118591,
2.450833321,296.7422485,
2.452500105,297.9615479,
2.454166651,297.6231995,
2.455833435,296.3182373,
2.457499981,295.615509,
2.459166765,295.9054565,
2.460833549,295.3785095,
2.462500095,296.0240479,
2.46416688,295.7372437,
2.465833187,296.7910767,
2.467499971,297.7596436,
2.469166756,295.5645447,
2.470833302,295.4701233,
2.472500086,296.174408,
2.474166632,295.1959229,
2.475833416,295.6732788,
2.4775002,296.1169128,
2.479166746,295.3987732,
2.48083353,296.1746521,
2.482499838,295.5543518,
2.484166622,296.2053223,
2.485833406,295.356842,
2.487499952,294.9667664,
2.489166737,296.6277466,
2.490833282,296.2427063,
2.492500067,294.1115417,
2.494166851,295.8754578,
2.495833397,297.2314148,
2.497500181,296.4261169,
2.499166727,297.0914917,
2.500833273,296.5151367,
2.502500057,294.2594604,
2.504166603,294.2210999,
2.505833387,296.2328491,
2.507499933,295.1730042,
2.509166718,295.5544739,
2.510833502,294.0975952,
2.512500048,294.5552673,
2.514166832,296.229187,
2.515833378,297.5090942,
2.517500162,294.2557068,
2.519166708,295.3143005,
2.520833254,293.8226013,
2.522500038,295.7044983,
2.524166584,295.6813354,
2.525833368,296.9111938,
2.527500153,298.1949463,
2.529166698,294.6543274,
2.530833483,295.237915,
2.532500029,296.6452942,
2.534166813,296.3734741,
2.535833597,294.5385132,
2.537499905,295.974762,
2.539166689,295.5924683,
2.540833235,296.4264526,
2.542500019,294.4888916,
2.544166803,296.8271179,
2.545833349,296.7068481,
2.547500134,297.7674866,
2.549166679,295.1115417,
2.550833464,294.8718567,
2.552500248,297.2110291,
2.554166555,295.4039307,
2.55583334,292.7017212,
2.557499886,295.5505981,
2.55916667,294.0375366,
2.560833454,295.4727173,
2.5625,293.9465637,
2.564166784,294.4969482,
2.56583333,293.5552368,
2.567500114,293.0241089,
2.569166899,293.9527893,
2.570833445,295.8001099,
2.57249999,295.8164063,
2.574166536,295.0348511,
2.575833321,295.3829651,
2.577500105,294.6659546,
2.579166651,292.7259827,
2.580833435,297.7598877,
2.582499981,295.9490051,
2.584166765,295.0379639,
2.585833549,293.2877197,
2.587500095,295.0982361,
2.58916688,294.5710449,
2.590833187,294.7156067,
2.592499971,294.5829773,
2.594166756,290.6278992,
2.595833302,295.5784912,
2.597500086,295.26297,
2.599166632,294.2985229,
2.600833416,294.3262939,
2.6025002,294.5422974,
2.604166746,293.7896423,
2.60583353,294.7770081,
2.607499838,293.5279236,
2.609166622,293.0626831,
2.610833406,296.2017517,
2.612499952,293.9953613,
2.614166737,293.6491394,
2.615833282,293.7663269,
2.617500067,294.691864,
2.619166851,294.6628113,
2.620833397,294.4798279,
2.622500181,292.3127747,
2.624166727,294.493927,
2.625833273,291.3061218,
2.627500057,295.3623047,
2.629166603,293.5767517,
2.630833387,294.2084656,
2.632499933,293.9829712,
2.634166718,294.3559875,
2.635833502,293.7153015,
2.637500048,293.084198,
2.639166832,296.0895081,
2.640833378,293.4086609,
2.642500162,293.5925598,
2.644166708,294.6811218,
2.645833254,293.3803406,
2.647500038,292.3655396,
2.649166584,292.9936829,
2.650833368,292.6525269,
2.652500153,293.5555115,
2.654166698,292.8972778,
2.655833483,291.8310852,
2.657500029,294.661377,
2.659166813,293.104187,
2.660833597,294.0584106,
2.662499905,292.981842,
2.664166689,293.8504028,
2.665833235,295.2958374,
2.667500019,294.6994324,
2.669166803,292.6377258,
2.670833349,294.01651,
2.672500134,293.6047668,
2.674166679,291.9568787,
2.675833464,293.1488037,
2.677500248,292.4454651,
2.679166555,291.2131348,
2.68083334,292.0247498,
2.682499886,292.6755066,
2.68416667,293.4079285,
2.685833454,293.2402954,
2.6875,292.555481,
2.689166784,292.532959,
2.69083333,291.9899292,
2.692500114,294.1122131,
2.694166899,294.8313293,
2.695833445,294.7111206,
2.69749999,291.8919678,
2.699166536,292.1706238,
2.700833321,292.6972961,
2.702500105,292.4927063,
2.704166651,294.113739,
2.705833435,291.697113,
2.707499981,290.8574219,
2.709166765,291.2284546,
2.710833549,292.2301331,
2.712500095,291.949707,
2.71416688,292.6983032,
2.715833187,292.3952637,
2.717499971,291.4033508,
2.719166756,292.2014465,
2.720833302,292.1497192,
2.722500086,293.1082764,
2.724166632,290.5334473,
2.725833416,291.4204407,
2.7275002,292.464325,
2.729166746,292.6109314,
2.73083353,291.8880615,
2.732499838,292.6573792,
2.734166622,290.9073181,
2.735833406,294.1034546,
2.737499952,292.2165527,
2.739166737,291.2169189,
2.740833282,292.5033569,
2.742500067,292.9684753,
2.744166851,291.9125061,
2.745833397,293.099762,
2.747500181,291.6123962,
2.749166727,293.6205139,
2.750833273,291.6540527,
2.752500057,292.2885132,
2.754166603,292.492981,
2.755833387,291.4772949,
2.757499933,291.8032227,
2.759166718,292.4284973,
2.760833502,292.5202026,
2.762500048,292.9903564,
2.764166832,293.5957642,
2.765833378,292.3383484,
2.767500162,292.0774536,
2.769166708,291.0140686,
2.770833254,293.1616821,
2.772500038,292.4202271,
2.774166584,293.8936768,
2.775833368,292.6149597,
2.777500153,290.6627808,
2.779166698,292.6150208,
2.780833483,292.5567932,
2.782500029,293.2297668,
2.784166813,290.9671021,
2.785833597,292.5489197,
2.787499905,291.4055786,
2.789166689,291.773468,
2.790833235,293.5630188,
2.792500019,291.1709595,
2.794166803,291.9440002,
2.795833349,291.2579041,
2.797500134,292.121582,
2.799166679,294.2765198,
2.800833464,292.6009521,
2.802500248,291.8011475,
2.804166555,291.0891418,
2.80583334,289.4389343,
2.807499886,292.1158752,
2.80916667,291.6170044,
2.810833454,293.9211426,
2.8125,293.2737732,
2.814166784,291.8978577,
2.81583333,291.8168335,
2.817500114,292.6055298,
2.819166899,292.9646606,
2.820833445,293.2126465,
2.82249999,291.9520874,
2.824166536,291.2243652,
2.825833321,292.8051453,
2.827500105,290.7036438,
2.829166651,291.0726318,
2.830833435,291.9425049,
2.832499981,290.4941406,
2.834166765,290.4229126,
2.835833549,292.3658447,
2.837500095,289.9138184,
2.83916688,290.0170898,
2.840833187,290.8648682,
2.842499971,291.9067383,
2.844166756,290.9017944,
2.845833302,289.4415283,
2.847500086,290.9085388,
2.849166632,290.3787231,
2.850833416,291.8018188,
2.8525002,292.4505615,
2.854166746,289.7329102,
2.85583353,289.4579468,
2.857499838,295.8525391,
2.859166622,291.7736206,
2.860833406,289.7668762,
2.862499952,291.9133606,
2.864166737,291.5350037,
2.865833282,291.5991211,
2.867500067,291.302124,
2.869166851,290.6473694,
2.870833397,291.3130798,
2.872500181,290.5048828,
2.874166727,289.7892151,
2.875833273,290.2486877,
2.877500057,289.8880005,
2.879166603,290.3350525,
2.880833387,291.240387,
2.882499933,290.9692078,
2.884166718,289.8134766,
2.885833502,290.9557495,
2.887500048,290.344696,
2.889166832,290.5430298,
2.890833378,290.4303589,
2.892500162,289.7025757,
2.894166708,290.1900635,
2.895833254,290.7902527,
2.897500038,291.4324951,
2.899166584,289.6284485,
2.900833368,288.5841064,
2.902500153,291.1108704,
2.904166698,289.3847046,
2.905833483,289.4829102,
2.907500029,290.6636047,
2.909166813,290.2182007,
2.910833597,290.3309937,
2.912499905,289.9566345,
2.914166689,290.2282715,
2.915833235,289.6346436,
2.917500019,290.2570496,
2.919166803,290.3423462,
2.920833349,291.7006531,
2.922500134,289.8834229,
2.924166679,289.6925049,
2.925833464,289.6798706,
2.927500248,290.775116,
2.929166555,289.4551086,
2.93083334,291.3155212,
2.932499886,290.8145142,
2.93416667,290.1308289,
2.935833454,291.1109314,
2.9375,289.6490784,
2.939166784,288.989563,
2.94083333,290.1040344,
2.942500114,290.3480225,
2.944166899,289.5634155,
2.945833445,290.7181702,
2.94749999,289.8246765,
2.949166536,290.4204102,
2.950833321,288.7024536,
2.952500105,289.6077271,
2.954166651,290.2059021,
2.955833435,290.5961914,
2.957499981,290.4211426,
2.959166765,289.7277222,
2.960833549,290.4150696,
2.962500095,290.5926819,
2.96416688,289.8529663,
2.965833187,291.751709,
2.967499971,290.1117554,
2.969166756,288.711731,
2.970833302,291.5707703,
2.972500086,289.0726318,
2.974166632,288.6778564,
2.975833416,292.7373352,
2.9775002,290.1383057,
2.979166746,289.0680237,
2.98083353,288.3830261,
2.982499838,290.0445862,
2.984166622,290.3435059,
2.985833406,290.2331848,
2.987499952,289.5386963,
2.989166737,290.8210754,
2.990833282,289.6294861,
2.992500067,291.0171814,
2.994166851,291.4720764,
2.995833397,290.1566772,
2.997500181,289.6595459,
2.999166727,288.8898621,
3.000833273,290.9679871,
3.002500057,290.9750061,
3.004166603,288.0275574,
3.005833387,290.1947021,
3.007499933,289.2943726,
3.009166718,293.3200378,
3.010833502,291.0703125,
3.012500048,290.2933044,
3.014166832,289.5402832,
3.015833378,289.1559143,
3.017500162,288.9546509,
3.019166708,288.7835083,
3.020833254,288.644043,
3.022500038,291.0487061,
3.024166584,289.2978821,
3.025833368,288.1411438,
3.027500153,289.8026123,
3.029166698,288.5035706,
3.030833483,289.065033,
3.032500029,289.2400513,
3.034166813,288.7491455,
3.035833597,289.4955139,
3.037499905,287.5069275,
3.039166689,288.1128845,
3.040833235,289.556427,
3.042500019,289.8777771,
3.044166803,288.6210938,
3.045833349,287.9620056,
3.047500134,288.9396667,
3.049166679,289.3573914,
3.050833464,291.601532,
3.052500248,289.2947693,
3.054166555,288.6699829,
3.05583334,288.4692383,
3.057499886,287.6445923,
3.05916667,288.3647461,
3.060833454,290.5117188,
3.0625,289.4240112,
3.064166784,291.445282,
3.06583333,290.4552612,
3.067500114,288.5096741,
3.069166899,289.0072327,
3.070833445,291.0396729,
3.07249999,289.0994873,
3.074166536,288.5562134,
3.075833321,290.0221863,
3.077500105,288.9234009,
3.079166651,289.6085205,
3.080833435,287.9378052,
3.082499981,287.4422302,
3.084166765,289.9936218,
3.085833549,288.0313416,
3.087500095,288.6846008,
3.08916688,288.9392395,
3.090833187,290.5577087,
3.092499971,288.6954956,
3.094166756,288.3085632,
3.095833302,289.4583435,
3.097500086,288.8358154,
3.099166632,287.807312,
3.100833416,287.9759521,
3.1025002,288.7634583,
3.104166746,290.8642883,
3.10583353,288.5315857,
3.107499838,287.7390747,
3.109166622,285.7437439,
3.110833406,289.3350525,
3.112499952,288.4859619,
3.114166737,288.207428,
3.115833282,291.7798157,
3.117500067,288.2901306,
3.119166851,287.1498718,
3.120833397,288.8024597,
3.122500181,288.2540283,
3.124166727,287.9954224,
3.125833273,291.0877991,
3.127500057,288.2718811,
3.129166603,286.9975281,
3.130833387,287.4211731,
3.132499933,287.1274719,
3.134166718,289.6166687,
3.135833502,288.3605652,
3.137500048,286.8070068,
3.139166832,288.0823669,
3.140833378,287.0527649,
3.142500162,286.5596924,
3.144166708,287.5138245,
3.145833254,288.3474426,
3.147500038,288.8503113,
3.149166584,287.5792236,
3.150833368,288.5818176,
3.152500153,288.0793762,
3.154166698,288.8113403,
3.155833483,285.9999084,
3.157500029,288.4980164,
3.159166813,288.1026611,
3.160833597,290.2096558,
3.162499905,289.7322998,
3.164166689,288.8894348,
3.165833235,288.7379456,
3.167500019,286.9240112,
3.169166803,288.5845337,
3.170833349,288.7408447,
3.172500134,287.1125488,
3.174166679,287.4998474,
3.175833464,288.5395508,
3.177500248,289.0809326,
3.179166555,288.6980896,
3.18083334,287.7278748,
3.182499886,289.1764526,
3.18416667,288.0114441,
3.185833454,287.6723022,
3.1875,289.0518188,
3.189166784,287.4295349,
3.19083333,288.7590027,
3.192500114,287.8805542,
3.194166899,288.6401367,
3.195833445,288.0971375,
3.19749999,288.6354675,
3.199166536,288.540863,
3.200833321,286.0463867,
3.202500105,290.2018738,
3.204166651,288.1176147,
3.205833435,287.3703613,
3.207499981,285.6877136,
3.209166765,287.7773743,
3.210833549,288.9971313,
3.212500095,287.6131897,
3.21416688,288.1237793,
3.215833187,287.3952942,
3.217499971,288.7273865,
3.219166756,287.9209595,
3.220833302,288.3392944,
3.222500086,288.1587219,
3.224166632,286.5250244,
3.225833416,288.1704712,
3.2275002,287.7331848,
3.229166746,287.8649597,
3.23083353,287.7391968,
3.232499838,287.5090942,
3.234166622,287.3053894,
3.235833406,286.5397034,
3.237499952,287.032196,
3.239166737,288.5898743,
3.240833282,288.2877808,
3.242500067,287.5092468,
3.244166851,285.6065369,
3.245833397,287.6545105,
3.247500181,287.107605,
3.249166727,286.7346191,
3.250833273,286.7195129,
3.252500057,286.9244385,
3.254166603,287.9021606,
3.255833387,287.5608215,
3.257499933,286.3597717,
3.259166718,287.0020447,
3.260833502,287.2845154,
3.262500048,286.9762573,
3.264166832,287.7413025,
3.265833378,287.2568359,
3.267500162,287.8766174,
3.269166708,287.8076782,
3.270833254,286.336853,
3.272500038,288.488678,
3.274166584,287.8401489,
3.275833368,286.8363953,
3.277500153,288.9100647,
3.279166698,287.1855774,
3.280833483,286.0946045,
3.282500029,287.5301208,
3.284166813,287.8163757,
3.285833597,286.5221558,
3.287499905,288.1109924,
3.289166689,286.3792419,
3.290833235,286.6774902,
3.292500019,289.3551025,
3.294166803,287.5022888,
3.295833349,287.8535767,
3.297500134,287.1342773,
3.299166679,288.6828308,
3.300833464,288.1017151,
3.302500248,286.6618958,
3.304166555,287.986908,
3.30583334,286.2723083,
3.307499886,285.182373,
3.30916667,287.8652649,
3.310833454,285.6512756,
3.3125,286.6633301,
3.314166784,286.3870239,
3.31583333,287.7389526,
3.317500114,288.8720703,
3.319166899,285.5518188,
3.320833445,288.1477966,
3.32249999,288.821991,
3.324166536,288.010376,
3.325833321,286.3210754,
3.327500105,288.7825928,
3.329166651,287.7216492,
3.330833435,288.2614441,
3.332499981,286.0499573,
3.334166765,284.5596008,
3.335833549,285.4338989,
3.337500095,286.2410889,
3.33916688,285.424408,
3.340833187,288.9273376,
3.342499971,287.388031,
3.344166756,285.9343567,
3.345833302,286.5683594,
3.347500086,285.3800659,
3.349166632,286.5909424,
3.350833416,286.5448914,
3.3525002,287.8135376,
3.354166746,287.666626,
3.35583353,285.4061279,
3.357499838,286.0081177,
3.359166622,285.8287659,
3.360833406,285.9274597,
3.362499952,285.7576904,
3.364166737,286.4020691,
3.365833282,288.0431824,
3.367500067,286.2416077,
3.369166851,286.6469727,
3.370833397,286.7217712,
3.372500181,286.7409668,
3.374166727,285.0127258,
3.375833273,287.8694458,
3.377500057,285.4378967,
3.379166603,285.6029663,
3.380833387,287.0369873,
3.382499933,286.8675537,
3.384166718,284.719696,
3.385833502,287.4634094,
3.387500048,285.2568054,
3.389166832,285.5803223,
3.390833378,285.9617004,
3.392500162,286.9717407,
3.394166708,286.9825439,
3.395833254,287.3934021,
3.397500038,286.5864563,
3.399166584,285.5639954,
3.400833368,286.028656,
3.402500153,287.3542175,
3.404166698,286.5608521,
3.405833483,286.9910889,
3.407500029,284.9869995,
3.409166813,286.4831238,
3.410833597,284.5668945,
3.412499905,286.6540833,
3.414166689,284.1184387,
3.415833235,286.7643738,
3.417500019,286.7329712,
3.419166803,285.5245972,
3.420833349,288.0959167,
3.422500134,287.3114929,
3.424166679,287.039917,
3.425833464,288.6629944,
3.427500248,285.1241455,
3.429166555,285.4105225,
3.43083334,285.577301,
3.432499886,286.8667603,
3.43416667,285.8028564,
3.435833454,284.5351257,
3.4375,285.4880371,
3.439166784,285.6789246,
3.44083333,287.1964722,
3.442500114,286.4083557,
3.444166899,285.6772461,
3.445833445,286.0914612,
3.44749999,287.8114319,
3.449166536,286.1715698,
3.450833321,283.9618835,
3.452500105,283.7379456,
3.454166651,286.4026794,
3.455833435,286.0205994,
3.457499981,286.3305664,
3.459166765,287.7015076,
3.460833549,286.762207,
3.462500095,287.3019409,
3.46416688,286.9577942,
3.465833187,286.8649902,
3.467499971,284.8948059,
3.469166756,286.6614685,
3.470833302,286.9752197,
3.472500086,288.4740295,
3.474166632,285.1730652,
3.475833416,286.5725708,
3.4775002,286.1305542,
3.479166746,287.8719788,
3.48083353,285.0264282,
3.482499838,285.7833557,
3.484166622,286.5021362,
3.485833406,287.0525818,
3.487499952,286.0896301,
3.489166737,287.7846069,
3.490833282,286.4309998,
3.492500067,285.4349976,
3.494166851,285.4564819,
3.495833397,285.5888672,
3.497500181,285.2677612,
3.499166727,288.2341614,
3.500833273,286.2392883,
3.502500057,287.092865,
3.504166603,285.5971985,
3.505833387,286.3322449,
3.507499933,285.9547729,
3.509166718,286.2970886,
3.510833502,286.3894653,
3.512500048,286.020752,
3.514166832,285.7744751,
3.515833378,285.7271118,
3.517500162,286.6690369,
3.519166708,288.3091736,
3.520833254,284.9805908,
3.522500038,286.0960999,
3.524166584,286.3040771,
3.525833368,283.9304199,
3.527500153,285.3590088,
3.529166698,286.4511719,
3.530833483,285.6763916,
3.532500029,285.0201721,
3.534166813,284.8175659,
3.535833597,286.1911621,
3.537499905,285.9290161,
3.539166689,285.8262024,
3.540833235,286.3044739,
3.542500019,283.7618408,
3.544166803,286.7886658,
3.545833349,286.3102417,
3.547500134,286.2937317,
3.549166679,285.3770142,
3.550833464,283.8078918,
3.552500248,285.9882202,
3.554166555,286.4523621,
3.55583334,283.8226929,
3.557499886,285.7399902,
3.55916667,286.3583374,
3.560833454,285.8444824,
3.5625,286.8841858,
3.564166784,285.8559265,
3.56583333,285.2535095,
3.567500114,285.5741577,
3.569166899,284.6227112,
3.570833445,284.9004822,
3.57249999,285.7562256,
3.574166536,283.8529358,
3.575833321,285.0281677,
3.577500105,284.0670471,
3.579166651,286.2621155,
3.580833435,285.0692444,
3.582499981,285.4055481,
3.584166765,286.2259216,
3.585833549,286.8114929,
3.587500095,285.4859009,
3.58916688,287.2796021,
3.590833187,284.7721863,
3.592499971,285.1714172,
3.594166756,284.5526733,
3.595833302,284.8742981,
3.597500086,286.0220337,
3.599166632,284.6684875,
3.600833416,285.2622375,
3.6025002,285.3703003,
3.604166746,285.7589722,
3.60583353,286.1351929,
3.607499838,285.6611633,
3.609166622,285.0541077,
3.610833406,285.8675232,
3.612499952,284.5550537,
3.614166737,285.0438843,
3.615833282,287.0473633,
3.617500067,286.1213379,
3.619166851,284.957428,
3.620833397,286.6222839,
3.622500181,286.1333313,
3.624166727,286.1026306,
3.625833273,286.6315918,
3.627500057,285.887207,
3.629166603,285.2194824,
3.630833387,285.8740845,
3.632499933,284.9655762,
3.634166718,285.4620667,
3.635833502,283.539917,
3.637500048,285.8559265,
3.639166832,285.3056946,
3.640833378,283.8044128,
3.642500162,285.6179504,
3.644166708,286.5552979,
3.645833254,283.9314575,
3.647500038,285.1864624,
3.649166584,284.1557922,
3.650833368,286.2211609,
3.652500153,284.4888916,
3.654166698,283.366333,
3.655833483,284.3935242,
3.657500029,285.2207947,
3.659166813,285.8684387,
3.660833597,285.0709839,
3.662499905,283.3900146,
3.664166689,284.2451782,
3.665833235,285.5159302,
3.667500019,284.0516663,
3.669166803,286.769928,
3.670833349,285.1982422,
3.672500134,285.4328003,
3.674166679,285.3431702,
3.675833464,284.7453613,
3.677500248,284.1169739,
3.679166555,284.375885,
3.68083334,284.8028259,
3.682499886,283.8049622,
3.68416667,283.9785461,
3.685833454,284.6471558,
3.6875,284.7685242,
3.689166784,284.5152588,
3.69083333,285.6128235,
3.692500114,286.0023499,
3.694166899,285.6078491,
3.695833445,284.6409607,
3.69749999,284.9830017,
3.699166536,286.2173157,
3.700833321,283.831543,
3.702500105,285.4674683,
3.704166651,286.6307373,
3.705833435,283.7709656,
3.707499981,284.0561829,
3.709166765,282.8133545,
3.710833549,283.4377747,
3.712500095,285.7247009,
3.71416688,284.8211975,
3.715833187,284.5863342,
3.717499971,283.2550964,
3.719166756,286.9372559,
3.720833302,285.1409607,
3.722500086,285.4113464,
3.724166632,285.0182495,
3.725833416,283.2344971,
3.7275002,284.4131775,
3.729166746,284.8612671,
3.73083353,284.6226501,
3.732499838,286.1719666,
3.734166622,285.2939453,
3.735833406,283.1763,
3.737499952,286.0663452,
3.739166737,284.882019,
3.740833282,286.5976868,
3.742500067,282.1687012,
3.744166851,284.0444031,
3.745833397,284.1798096,
3.747500181,285.2272644,
3.749166727,282.7086792,
3.750833273,284.4151917,
3.752500057,282.3184814,
3.754166603,283.4552917,
3.755833387,285.2662354,
3.757499933,286.1682434,
3.759166718,285.1563721,
3.760833502,285.0339661,
3.762500048,284.8492126,
3.764166832,283.9336548,
3.765833378,284.3609314,
3.767500162,284.0019836,
3.769166708,284.3153381,
3.770833254,283.7379761,
3.772500038,282.116272,
3.774166584,284.2297363,
3.775833368,285.2463989,
3.777500153,284.3579102,
3.779166698,286.0027161,
3.780833483,282.9872131,
3.782500029,283.6513672,
3.784166813,284.4066162,
3.785833597,282.1036682,
3.787499905,283.7137146,
3.789166689,283.4596558,
3.790833235,283.7646179,
3.792500019,284.1334229,
3.794166803,283.5068359,
3.795833349,285.3535767,
3.797500134,284.9346924,
3.799166679,284.2988892,
3.800833464,284.910614,
3.802500248,285.1441345,
3.804166555,284.0991821,
3.80583334,283.328064,
3.807499886,285.0978699,
3.80916667,285.8162537,
3.810833454,284.2763977,
3.8125,284.3052673,
3.814166784,284.144928,
3.81583333,284.5110779,
3.817500114,283.5292053,
3.819166899,286.5563965,
3.820833445,286.0855713,
3.82249999,284.5444336,
3.824166536,283.9394226,
3.825833321,285.0104065,
3.827500105,285.5084534,
3.829166651,284.8727722,
3.830833435,283.1839294,
3.832499981,285.0387268,
3.834166765,284.2193298,
3.835833549,283.7910461,
3.837500095,284.3567505,
3.83916688,284.7827759,
3.840833187,285.3487854,
3.842499971,283.1091614,
3.844166756,284.203186,
3.845833302,284.7352295,
3.847500086,284.2583618,
3.849166632,286.0570679,
3.850833416,282.8579102,
3.8525002,284.1068115,
3.854166746,283.5613403,
3.85583353,287.4603271,
3.857499838,284.740448,
3.859166622,284.7136536,
3.860833406,283.6030273,
3.862499952,283.3555908,
3.864166737,284.0179138,
3.865833282,284.0252075,
3.867500067,283.6484375,
3.869166851,283.3658447,
3.870833397,283.8776855,
3.872500181,285.1824951,
3.874166727,284.211731,
3.875833273,283.2721863,
3.877500057,285.1936035,
3.879166603,284.8547974,
3.880833387,286.3670349,
3.882499933,284.5785522,
3.884166718,282.3697815,
3.885833502,282.1594238,
3.887500048,282.4275513,
3.889166832,284.5989685,
3.890833378,283.7161255,
3.892500162,284.2746582,
3.894166708,284.7194214,
3.895833254,283.8756104,
3.897500038,285.6011353,
3.899166584,285.1009521,
3.900833368,283.9771118,
3.902500153,284.242157,
3.904166698,284.472229,
3.905833483,283.874176,
3.907500029,284.3180237,
3.909166813,282.9429932,
3.910833597,284.7402344,
3.912499905,284.4125366,
3.914166689,282.9867859,
3.915833235,281.1958923,
3.917500019,285.2444153,
3.919166803,282.210144,
3.920833349,285.3334351,
3.922500134,281.3984375,
3.924166679,282.964386,
3.925833464,283.3927612,
3.927500248,283.7123718,
3.929166555,283.9961548,
3.93083334,283.1005554,
3.932499886,283.1646729,
3.93416667,285.871521,
3.935833454,283.8535156,
3.9375,283.4853821,
3.939166784,284.9467773,
3.94083333,284.874939,
3.942500114,284.1126709,
3.944166899,285.1607056,
3.945833445,283.2990112,
3.94749999,284.1222839,
3.949166536,283.4496155,
3.950833321,283.8996887,
3.952500105,285.284668,
3.954166651,285.1282349,
3.955833435,283.2291565,
3.957499981,282.5396423,
3.959166765,284.769043,
3.960833549,283.1225586,
3.962500095,283.0973511,
3.96416688,283.194519,
3.965833187,282.7842407,
3.967499971,282.5199585,
3.969166756,284.1378784,
3.970833302,285.4946594,
3.972500086,283.3299255,
3.974166632,283.4732666,
3.975833416,283.2966919,
3.9775002,284.76474,
3.979166746,284.9012451,
3.98083353,284.5343018,
3.982499838,284.4510498,
3.984166622,283.8685303,
3.985833406,282.4338684,
3.987499952,283.9699097,
3.989166737,285.7915649,
3.990833282,286.881958,
3.992500067,283.6226807,
3.994166851,281.9535828,
3.995833397,281.6091309,
3.997500181,283.1295471,
3.999166727,284.776062,
4.000833511,281.609436,
4.002500057,284.223053,
4.004166603,283.7563477,
4.005833626,284.0668335,
4.007500172,283.3822021,
4.009166718,283.3759766,
4.010833263,283.4109192,
4.012499809,283.4034729,
4.014166832,284.5687256,
4.015833378,283.8770447,
4.017499924,282.5100098,
4.019166946,283.3450623,
4.020833492,285.4897766,
4.022500038,284.4790039,
4.024166584,282.0359497,
4.025833607,283.9108582,

