1,,
Time (min),Intensity (a.u.),
0.0008333333535,320.5058289,
0.002500000177,322.020813,
0.004166666884,321.6661987,
0.005833333358,321.6938171,
0.007500000298,321.6529236,
0.009166667238,320.0906372,
0.01083333418,321.4486389,
0.01250000019,320.7896729,
0.01416666713,320.8608704,
0.01583333313,321.3193359,
0.01750000194,321.3583374,
0.01916666701,321.0037842,
0.02083333395,321.1893921,
0.02250000089,320.4553223,
0.02416666783,320.3061829,
0.02583333477,320.6916809,
0.02749999985,321.2430115,
0.02916666679,321.3035583,
0.03083333373,319.7909851,
0.03250000253,321.0921631,
0.03416666761,322.1881409,
0.03583333641,321.0604553,
0.03750000149,322.6162415,
0.03916667029,322.0218506,
0.04083333537,321.0504761,
0.04250000045,322.6254578,
0.04416666925,320.4944763,
0.04583333433,321.0309448,
0.04750000313,325.2420959,
0.04916666821,321.1884155,
0.05083333328,320.9151001,
0.05250000209,320.488678,
0.05416666716,321.4405212,
0.05583333597,321.5219727,
0.05750000104,320.8678894,
0.05916666612,320.5076599,
0.06083333492,321.0015564,
0.0625,320.5610046,
0.06416667253,319.5592957,
0.0658333376,321.9030457,
0.06750000268,320.7131042,
0.06916666776,321.0848694,
0.07083333284,318.8899841,
0.07249999791,321.5926819,
0.07416667044,323.3305054,
0.07583333552,319.4928894,
0.0775000006,322.638855,
0.07916666567,320.9495544,
0.08083333075,321.105011,
0.08250000328,320.2187805,
0.08416666836,320.9155884,
0.08583333343,320.388855,
0.08749999851,322.6582947,
0.08916666359,321.2843628,
0.09083333611,320.9238586,
0.09250000119,322.8635864,
0.09416666627,323.1096802,
0.09583333135,321.0808716,
0.09749999642,320.4077148,
0.09916666895,321.5275574,
0.100833334,321.3731995,
0.1024999991,320.6833801,
0.1041666642,321.8236694,
0.1058333293,321.7877502,
0.1075000018,320.1419373,
0.1091666669,321.1300659,
0.1108333319,322.5526733,
0.112499997,320.2448425,
0.1141666621,320.1732788,
0.1158333346,321.1418152,
0.1174999997,322.0611572,
0.1191666648,322.4614258,
0.1208333299,319.8718262,
0.1224999949,321.3602905,
0.1241666749,322.653717,
0.1258333325,322.370697,
0.1274999976,320.5873108,
0.1291666627,320.0425415,
0.1308333278,321.503418,
0.1325000077,321.9533081,
0.1341666728,321.8544006,
0.1358333379,320.9844055,
0.137500003,321.3364563,
0.1391666681,321.0690613,
0.1408333331,321.987915,
0.1424999982,319.9976501,
0.1441666782,321.0057068,
0.1458333284,321.7188721,
0.1475000083,322.5452576,
0.1491666585,321.1963806,
0.1508333385,322.5100403,
0.1525000036,321.7506104,
0.1541666687,321.999115,
0.1558333337,320.6237488,
0.1574999988,321.3024292,
0.1591666639,321.6488647,
0.1608333439,319.5266724,
0.162499994,320.9401855,
0.164166674,321.7643433,
0.1658333242,323.2594299,
0.1675000042,321.0664063,
0.1691666692,320.9040833,
0.1708333343,321.079895,
0.1724999994,320.114624,
0.1741666645,323.1749878,
0.1758333296,324.4691772,
0.1775000095,321.8444214,
0.1791666597,321.5295715,
0.1808333397,322.6193542,
0.1824999899,319.9368591,
0.1841666698,322.1752625,
0.1858333498,322.8112793,
0.1875,322.3939209,
0.18916668,321.3766479,
0.1908333302,322.9229126,
0.1925000101,322.4351501,
0.1941666752,322.7724609,
0.1958333403,322.3080139,
0.1975000054,321.3518677,
0.1991666704,322.7041016,
0.2008333355,322.7337952,
0.2025000155,322.3162842,
0.2041666657,321.2206726,
0.2058333457,320.5079041,
0.2074999958,322.0205688,
0.2091666758,321.493927,
0.2108333409,321.5621338,
0.212500006,322.7400208,
0.214166671,321.2357178,
0.2158333361,320.6646729,
0.2175000012,321.6334229,
0.2191666812,321.5550842,
0.2208333313,322.2188721,
0.2225000113,322.5194397,
0.2241666615,323.1394043,
0.2258333415,323.6157227,
0.2275000066,321.0944214,
0.2291666716,320.6310425,
0.2308333367,322.151825,
0.2325000018,322.3544922,
0.2341666669,322.8388062,
0.2358333468,320.2397156,
0.237499997,319.5852051,
0.239166677,321.1953125,
0.2408333272,322.375824,
0.2425000072,321.1903992,
0.2441666722,320.169342,
0.2458333373,321.4013062,
0.2475000024,321.3147888,
0.2491666675,321.0483398,
0.2508333325,321.9507751,
0.2524999976,325.4701538,
0.2541666627,322.6200562,
0.2558333278,321.428772,
0.2574999928,322.351593,
0.2591666579,322.523468,
0.2608333528,324.486908,
0.2624999881,319.2013245,
0.264166683,321.3131714,
0.2658333182,322.2528992,
0.2675000131,322.8535156,
0.2691666484,320.6470947,
0.2708333433,321.8687134,
0.2725000083,320.2889404,
0.2741666734,320.9559326,
0.2758333385,321.1761169,
0.2775000036,324.2028503,
0.2791666687,322.8725586,
0.2808333337,322.8578796,
0.2824999988,320.1011353,
0.2841666937,320.2040405,
0.285833329,322.3071594,
0.287499994,321.331604,
0.2891666591,321.9864502,
0.290833354,322.3447266,
0.2925000191,320.4101257,
0.2941666543,320.915863,
0.2958333194,322.3849182,
0.2975000143,321.2503967,
0.2991666794,320.3334961,
0.3008333445,320.8139038,
0.3024999797,323.1296997,
0.3041666746,321.269043,
0.3058333397,321.3908997,
0.3075000048,320.4704895,
0.3091666996,323.0430603,
0.3108333349,319.5875549,
0.3125,319.7626953,
0.3141666651,320.1141357,
0.31583336,321.3825073,
0.317500025,319.4508972,
0.3191666603,321.8321228,
0.3208333254,320.2741699,
0.3225000203,322.5364685,
0.3241666853,321.6963196,
0.3258333504,322.6812439,
0.3274999857,321.851593,
0.3291666806,321.7723694,
0.3308333457,324.093811,
0.3325000107,321.6077271,
0.3341666758,321.1936035,
0.3358333409,322.6732483,
0.337500006,320.8159485,
0.339166671,322.1619873,
0.3408333361,321.8816223,
0.342500031,319.9028931,
0.3441666663,320.79953,
0.3458333313,321.3736877,
0.3474999964,321.399292,
0.3491666913,322.7566223,
0.3508333564,321.9250793,
0.3524999917,321.4528198,
0.3541666567,322.5053101,
0.3558333516,323.1403198,
0.3575000167,320.5583191,
0.3591666818,321.143158,
0.360833317,320.48703,
0.3625000119,321.9062805,
0.364166677,322.0791626,
0.3658333421,319.3815002,
0.3675000072,322.9335327,
0.3691666722,321.8516541,
0.3708333373,321.7662659,
0.3725000024,321.872406,
0.3741666675,319.7466125,
0.3758333623,322.6011658,
0.3774999976,322.6158142,
0.3791666627,322.109314,
0.3808333278,322.8722229,
0.3825000226,322.2859497,
0.3841666877,321.3483582,
0.385833323,323.4674683,
0.3874999881,322.236084,
0.389166683,321.7658386,
0.390833348,320.4571533,
0.3925000131,322.2970276,
0.3941666484,321.4891663,
0.3958333433,321.5690613,
0.3975000083,322.3078003,
0.3991666734,323.3622131,
0.4008333385,321.0072632,
0.4025000036,322.7230835,
0.4041666687,321.4768677,
0.4058333337,320.3085938,
0.4074999988,322.7921143,
0.4091666937,322.7799988,
0.410833329,321.3492126,
0.412499994,320.8521423,
0.4141666591,321.1680908,
0.415833354,322.1454468,
0.4175000191,322.1351624,
0.4191666543,321.2732849,
0.4208333194,323.2408752,
0.4225000143,321.8914795,
0.4241666794,323.8640442,
0.4258333445,321.7824402,
0.4274999797,320.4795532,
0.4291666746,323.4376831,
0.4308333397,320.4831238,
0.4325000048,323.911377,
0.4341666996,323.0690613,
0.4358333349,322.0434265,
0.4375,319.8528442,
0.4391666651,320.9898682,
0.44083336,321.065979,
0.442500025,321.2693481,
0.4441666603,321.2407227,
0.4458333254,323.2657776,
0.4475000203,320.7807007,
0.4491666853,323.9360046,
0.4508333504,320.9015503,
0.4524999857,322.4291687,
0.4541666806,320.3086853,
0.4558333457,318.9207764,
0.4575000107,322.6900024,
0.4591666758,321.2494202,
0.4608333409,322.4474182,
0.462500006,322.2575073,
0.464166671,322.130188,
0.4658333361,321.48172,
0.467500031,320.411377,
0.4691666663,321.3434753,
0.4708333313,321.8890381,
0.4724999964,320.8409729,
0.4741666913,324.3323364,
0.4758333564,322.4432983,
0.4774999917,323.38797,
0.4791666567,322.2108459,
0.4808333516,321.4577942,
0.4825000167,321.7175903,
0.4841666818,322.8013306,
0.485833317,321.546051,
0.4875000119,323.4885254,
0.489166677,322.4960327,
0.4908333421,321.3217773,
0.4925000072,324.8070374,
0.4941666722,320.9300537,
0.4958333373,324.4299011,
0.4975000024,324.1106873,
0.4991666675,322.6990967,
0.5008333325,321.6710815,
0.5024999976,320.0593567,
0.5041666627,320.9251404,
0.5058333278,322.7075806,
0.5074999928,322.9972839,
0.5091666579,322.5858459,
0.510833323,321.3775635,
0.5124999881,324.7530823,
0.5141666532,320.0629578,
0.5158333182,322.4736633,
0.5175000429,321.1722107,
0.5191666484,322.4214478,
0.5208333135,321.0106506,
0.5224999785,321.5840759,
0.5241667032,321.593689,
0.5258333683,321.9699402,
0.5274999738,320.5626221,
0.5291666389,321.309021,
0.5308333635,321.5143433,
0.5325000286,322.7308044,
0.5341666341,324.9212952,
0.5358333588,321.0206909,
0.5375000238,321.8911133,
0.5391666889,322.0481567,
0.540833354,322.414978,
0.5424999595,322.7090759,
0.5441666842,320.7980347,
0.5458333492,321.7181091,
0.5475000143,321.1714172,
0.5491666794,321.0171509,
0.5508333445,322.5473938,
0.5525000095,323.633667,
0.5541666746,320.2895203,
0.5558333993,321.4534912,
0.5575000048,321.8907166,
0.5591666698,321.2423096,
0.5608333349,322.6993408,
0.5625,322.7856445,
0.5641667247,321.7197266,
0.5658333302,323.4528809,
0.5674999952,321.9413147,
0.5691667199,321.1539307,
0.5708333254,319.6685181,
0.5725000501,321.5498352,
0.5741666555,322.8920898,
0.5758333206,321.797699,
0.5775000453,323.352417,
0.5791666508,321.2621155,
0.5808333755,321.4949036,
0.5825000405,322.2307129,
0.584166646,320.4955444,
0.5858333707,322.7402039,
0.5874999762,320.686676,
0.5891667008,320.317688,
0.5908333659,320.7542725,
0.5924999714,321.0591431,
0.5941666961,321.2446289,
0.5958333611,321.5307617,
0.5975000262,319.5582581,
0.5991666913,321.6531677,
0.6008332968,319.5997925,
0.6025000215,322.5592346,
0.6041666865,321.7703552,
0.6058333516,319.6477966,
0.6075000167,322.2479248,
0.6091666818,322.5429688,
0.6108333468,322.7818298,
0.6125000119,323.7337646,
0.614166677,322.3177795,
0.6158333421,321.0603027,
0.6175000072,320.305603,
0.6191666722,321.7702942,
0.6208333373,321.9157715,
0.622500062,320.821106,
0.6241666675,321.1938477,
0.6258333325,321.7506104,
0.6274999976,322.2497864,
0.6291666627,321.6491394,
0.6308333874,322.8666382,
0.6324999928,319.4563293,
0.6341666579,322.9145508,
0.6358333826,321.9590759,
0.6374999881,322.1003723,
0.6391667128,322.1628418,
0.6408333182,322.3692017,
0.6424999833,319.5682983,
0.644166708,323.6933289,
0.6458333135,321.0967102,
0.6475000381,322.4473267,
0.6491667032,321.2180176,
0.6508333087,322.7962952,
0.6525000334,321.488678,
0.6541666389,321.8473206,
0.6558333635,322.5994873,
0.6575000286,321.7203064,
0.6591666341,321.4296265,
0.6608333588,320.4395752,
0.6625000238,320.7164917,
0.6641666889,320.1383057,
0.665833354,322.10495,
0.6674999595,319.9933472,
0.6691666842,321.7842712,
0.6708333492,321.0786133,
0.6725000143,321.6739197,
0.6741666794,321.3947754,
0.6758333445,322.0411377,
0.6775000095,320.9451904,
0.6791666746,320.38797,
0.6808333993,320.4913025,
0.6825000048,321.4196472,
0.6841666698,320.7657776,
0.6858333349,320.0533142,
0.6875,323.7558594,
0.6891667247,322.3344727,
0.6908333302,321.8479919,
0.6924999952,321.3425903,
0.6941667199,321.5762634,
0.6958333254,321.5534058,
0.6975000501,321.5516663,
0.6991666555,321.4929199,
0.7008333206,321.9572449,
0.7025000453,322.4888916,
0.7041666508,320.3338623,
0.7058333755,322.6355286,
0.7075000405,322.1757813,
0.709166646,323.8342896,
0.7108333707,321.2444153,
0.7124999762,321.6138,
0.7141667008,322.3013611,
0.7158333659,322.3952026,
0.7174999714,321.4505005,
0.7191666961,322.8519592,
0.7208333611,322.3922729,
0.7225000262,320.7326355,
0.7241666913,322.7758484,
0.7258332968,321.6476135,
0.7275000215,322.4909058,
0.7291666865,320.7442017,
0.7308333516,320.8640137,
0.7325000167,320.9947205,
0.7341666818,323.0847778,
0.7358333468,322.6711731,
0.7375000119,320.2242126,
0.739166677,321.9505005,
0.7408333421,323.500946,
0.7425000072,319.9476318,
0.7441666722,324.975647,
0.7458333373,320.4406433,
0.747500062,322.6955566,
0.7491666675,321.7171326,
0.7508333325,323.0658264,
0.7524999976,322.8123779,
0.7541666627,320.3285217,
0.7558333874,322.9859619,
0.7574999928,321.1427612,
0.7591666579,321.1748962,
0.7608333826,322.111084,
0.7624999881,321.5409851,
0.7641667128,321.2680359,
0.7658333182,323.1746521,
0.7674999833,323.8773804,
0.769166708,325.2209473,
0.7708333135,321.0760498,
0.7725000381,321.0753479,
0.7741667032,322.462677,
0.7758333087,322.0640869,
0.7775000334,321.6609497,
0.7791666389,321.228363,
0.7808333635,323.2468262,
0.7825000286,321.6916199,
0.7841666341,321.7986755,
0.7858333588,321.1547852,
0.7875000238,322.669281,
0.7891666889,321.7355652,
0.790833354,325.5421448,
0.7924999595,324.4266052,
0.7941666842,322.0565796,
0.7958333492,323.2110901,
0.7975000143,320.0993042,
0.7991666794,321.3984985,
0.8008333445,321.2137451,
0.8025000095,320.4195557,
0.8041666746,322.9630737,
0.8058333993,320.9709167,
0.8075000048,322.5871277,
0.8091666698,324.6416016,
0.8108333349,322.0509338,
0.8125,324.9989014,
0.8141667247,324.0945129,
0.8158333302,322.6419678,
0.8174999952,321.8615112,
0.8191667199,321.4255981,
0.8208333254,322.6490479,
0.8225000501,321.9526978,
0.8241666555,322.8505249,
0.8258333206,325.0235596,
0.8275000453,324.3092651,
0.8291666508,321.9105835,
0.8308333755,322.5310364,
0.8325000405,322.1477356,
0.834166646,320.5404968,
0.8358333707,322.3802185,
0.8374999762,323.0999756,
0.8391667008,322.98349,
0.8408333659,323.4867554,
0.8424999714,322.3011169,
0.8441666961,321.2189941,
0.8458333611,323.500061,
0.8475000262,322.0041809,
0.8491666913,323.6645813,
0.8508332968,322.0514526,
0.8525000215,323.2713623,
0.8541666865,320.1868896,
0.8558333516,322.2561646,
0.8575000167,323.2418823,
0.8591666818,321.1232605,
0.8608333468,321.9172974,
0.8625000119,322.0990295,
0.864166677,323.0623169,
0.8658333421,323.4781189,
0.8675000072,323.134613,
0.8691666722,322.980835,
0.8708333373,321.9613953,
0.872500062,320.8878479,
0.8741666675,322.6323853,
0.8758333325,322.8465271,
0.8774999976,321.6092224,
0.8791666627,323.1188965,
0.8808333874,321.929718,
0.8824999928,323.143158,
0.8841666579,322.0404968,
0.8858333826,321.9013062,
0.8874999881,322.5487366,
0.8891667128,322.6253052,
0.8908333182,321.72229,
0.8924999833,322.8473816,
0.894166708,321.9572754,
0.8958333135,322.0541687,
0.8975000381,320.6166992,
0.8991667032,321.475708,
0.9008333087,320.932373,
0.9025000334,321.9224548,
0.9041666389,320.8016052,
0.9058333635,322.3348694,
0.9075000286,323.2642517,
0.9091666341,323.6975098,
0.9108333588,321.7390747,
0.9125000238,321.5153198,
0.9141666889,321.9777527,
0.915833354,323.3825989,
0.9174999595,324.4677734,
0.9191666842,323.5946045,
0.9208333492,323.2357178,
0.9225000143,321.1343689,
0.9241666794,320.9842529,
0.9258333445,323.016571,
0.9275000095,321.8071594,
0.9291666746,321.3643799,
0.9308333993,320.8025208,
0.9325000048,324.3417969,
0.9341666698,319.6751709,
0.9358333349,322.6791992,
0.9375,321.7372437,
0.9391667247,323.2737122,
0.9408333302,321.2270203,
0.9424999952,321.0352173,
0.9441667199,324.7575073,
0.9458333254,322.3228455,
0.9475000501,321.7776794,
0.9491666555,323.2028503,
0.9508333206,321.0087891,
0.9525000453,320.802948,
0.9541666508,322.1466675,
0.9558333755,321.7971191,
0.9575000405,322.4353333,
0.959166646,321.837738,
0.9608333707,320.8487854,
0.9624999762,324.1820374,
0.9641667008,323.8984375,
0.9658333659,322.1990662,
0.9674999714,322.598877,
0.9691666961,322.5560608,
0.9708333611,325.1218872,
0.9725000262,320.4126892,
0.9741666913,322.3663025,
0.9758332968,325.1412659,
0.9775000215,322.1034851,
0.9791666865,321.2815552,
0.9808333516,324.9123535,
0.9825000167,320.1186218,
0.9841666818,321.7702026,
0.9858333468,322.6453857,
0.9875000119,320.2378845,
0.989166677,319.7748718,
0.9908333421,321.5300598,
0.9925000072,322.0190125,
0.9941666722,323.5874023,
0.9958333373,323.4798889,
0.997500062,322.8636169,
0.9991666675,321.3190308,
1.000833273,320.9795227,
1.002500057,320.8704529,
1.004166722,323.4418335,
1.005833387,322.1192932,
1.007500052,321.8380432,
1.009166598,322.336792,
1.010833383,323.4750671,
1.012500048,323.7599182,
1.014166713,322.6559448,
1.015833378,320.4515076,
1.017500043,321.0331726,
1.019166708,321.2051697,
1.020833373,323.8237,
1.022500038,321.2174377,
1.024166703,322.4101868,
1.025833368,323.6834106,
1.027500033,321.5757446,
1.029166698,323.644043,
1.030833364,321.6455383,
1.032500029,323.3491211,
1.034166694,323.2140198,
1.035833359,323.3747559,
1.037500024,323.0050659,
1.039166689,322.9527588,
1.040833354,322.6056213,
1.042500019,322.5115051,
1.044166684,323.4827576,
1.045833349,322.2975464,
1.047500014,321.6411133,
1.049166679,322.4960938,
1.050833344,321.9882813,
1.05250001,322.4803467,
1.054166675,323.8502197,
1.05583334,324.4376221,
1.057500005,322.5952148,
1.05916667,322.0265198,
1.060833335,321.9668579,
1.0625,321.6894226,
1.064166665,322.1912231,
1.06583333,324.2130127,
1.067499995,324.5532227,
1.06916666,322.7174377,
1.070833325,322.3503723,
1.07249999,322.8153687,
1.074166775,321.11026,
1.07583344,323.6593933,
1.077499986,320.8936462,
1.079166651,322.4732361,
1.080833316,321.8233948,
1.0825001,320.4118347,
1.084166765,323.4692993,
1.085833311,323.0329285,
1.087499976,321.6539917,
1.089166641,321.5387878,
1.090833426,322.9064941,
1.092500091,321.3591614,
1.094166636,322.6523743,
1.095833302,322.4172058,
1.097499967,322.0649414,
1.099166751,322.9881287,
1.100833416,321.2781677,
1.102500081,321.1786804,
1.104166627,323.0112915,
1.105833292,321.0965881,
1.107500076,324.2251892,
1.109166741,322.9555359,
1.110833406,319.8117065,
1.112499952,323.026886,
1.114166617,323.6557312,
1.115833402,321.878479,
1.117500067,322.4219666,
1.119166732,322.0880432,
1.120833278,322.5587463,
1.122499943,320.8283386,
1.124166727,322.0557556,
1.125833392,322.7649841,
1.127500057,320.5977783,
1.129166722,322.6740417,
1.130833268,322.288208,
1.132500052,320.9960327,
1.134166718,293.8018494,
1.135833383,277.780426,
1.137500048,277.8212585,
1.139166594,280.357666,
1.140833378,272.3973083,
1.142500043,261.7902527,
1.144166708,295.6706848,
1.145833373,295.2992554,
1.147499919,290.9455872,
1.149166703,288.3609619,
1.150833368,289.7106628,
1.152500033,291.0679626,
1.154166698,290.7124634,
1.155833364,295.8040161,
1.157500029,294.2476807,
1.159166694,297.51651,
1.160833359,299.5554504,
1.162500024,261.2997742,
1.164166689,302.0623169,
1.165833354,259.6852417,
1.167500019,257.2589722,
1.169166684,290.6914673,
1.170833349,264.3619385,
1.172500014,256.7001038,
1.174166799,290.2164307,
1.175833344,269.4337769,
1.17750001,272.2829895,
1.179166675,276.519104,
1.18083334,301.495636,
1.182500124,258.4864197,
1.18416667,256.6445923,
1.185833335,278.6489258,
1.1875,273.7671204,
1.189166665,247.0274353,
1.190833449,268.962677,
1.192499995,256.5422668,
1.19416666,236.6143188,
1.195833325,257.8694763,
1.19749999,265.2388,
1.199166775,313.4710693,
1.20083344,312.9959717,
1.202499986,311.2735901,
1.204166651,314.2791443,
1.205833316,314.032074,
1.2075001,315.1963501,
1.209166765,312.8725586,
1.210833311,312.8891602,
1.212499976,314.1063843,
1.214166641,312.7421265,
1.215833426,313.1572571,
1.217500091,312.2330627,
1.219166636,310.1173401,
1.220833302,311.2995911,
1.222499967,311.6779785,
1.224166751,311.5072632,
1.225833416,309.1230774,
1.227500081,308.7364502,
1.229166627,309.5436401,
1.230833292,311.6785583,
1.232500076,309.2680054,
1.234166741,309.552063,
1.235833406,312.4630737,
1.237499952,309.2591248,
1.239166617,309.2796631,
1.240833402,310.113678,
1.242500067,310.4996948,
1.244166732,312.2112732,
1.245833278,308.8847656,
1.247499943,309.2391663,
1.249166727,306.7131348,
1.250833392,306.3998718,
1.252500057,307.7423401,
1.254166722,306.8095398,
1.255833268,306.4089966,
1.257500052,306.6093445,
1.259166718,306.5959778,
1.260833383,306.5942993,
1.262500048,309.322113,
1.264166594,306.2644958,
1.265833378,305.5896912,
1.267500043,304.2848206,
1.269166708,305.0948181,
1.270833373,306.4120789,
1.272499919,305.1800232,
1.274166703,304.94104,
1.275833368,304.8934937,
1.277500033,304.8865662,
1.279166698,304.8796692,
1.280833364,304.1785278,
1.282500029,303.7292175,
1.284166694,303.8395386,
1.285833359,305.0264587,
1.287500024,303.4863586,
1.289166689,303.6628723,
1.290833354,301.4674683,
1.292500019,302.5932922,
1.294166684,303.0721741,
1.295833349,303.0456238,
1.297500014,302.831665,
1.299166799,302.6558228,
1.300833344,302.4936523,
1.30250001,302.4708252,
1.304166675,301.4386292,
1.30583334,302.3531189,
1.307500124,302.7140503,
1.30916667,300.116333,
1.310833335,300.2595825,
1.3125,301.2384949,
1.314166665,301.2557678,
1.315833449,300.0697632,
1.317499995,301.4425659,
1.31916666,300.3170776,
1.320833325,299.6976624,
1.32249999,302.1972351,
1.324166775,301.949585,
1.32583344,302.1748657,
1.327499986,299.5922546,
1.329166651,300.4758301,
1.330833316,300.0345764,
1.3325001,299.8520508,
1.334166765,301.7523804,
1.335833311,299.1142273,
1.337499976,298.0881042,
1.339166641,297.5372314,
1.340833426,298.552124,
1.342500091,302.0296936,
1.344166636,298.6004639,
1.345833302,300.1521606,
1.347499967,299.486908,
1.349166751,297.1761169,
1.350833416,298.0775452,
1.352500081,297.0046692,
1.354166627,299.5527039,
1.355833292,297.0551453,
1.357500076,298.6537476,
1.359166741,298.9721069,
1.360833406,298.4851379,
1.362499952,296.2298584,
1.364166617,297.5445251,
1.365833402,298.1141663,
1.367500067,297.2727966,
1.369166732,297.4923096,
1.370833278,297.0229492,
1.372499943,297.1198425,
1.374166727,297.2314758,
1.375833392,295.3211975,
1.377500057,296.0950623,
1.379166722,296.0724182,
1.380833268,295.6888428,
1.382500052,295.8959656,
1.384166718,296.9451294,
1.385833383,300.0170898,
1.387500048,295.5785522,
1.389166594,295.9777527,
1.390833378,296.717865,
1.392500043,293.7901001,
1.394166708,294.6412659,
1.395833373,296.0549011,
1.397499919,295.2345886,
1.399166703,296.9920959,
1.400833368,294.9364929,
1.402500033,296.0969543,
1.404166698,293.6729431,
1.405833364,293.9624634,
1.407500029,294.6373291,
1.409166694,294.5074768,
1.410833359,292.9326172,
1.412500024,295.4508667,
1.414166689,292.7371216,
1.415833354,292.540802,
1.417500019,293.154541,
1.419166684,292.3635559,
1.420833349,294.3292847,
1.422500014,294.932251,
1.424166799,293.6199341,
1.425833344,292.6990356,
1.42750001,292.628418,
1.429166675,292.2545776,
1.43083334,292.6943359,
1.432500124,292.2841187,
1.43416667,291.5210571,
1.435833335,293.4331665,
1.4375,291.2122498,
1.439166665,290.9812012,
1.440833449,292.9122314,
1.442499995,291.3988037,
1.44416666,292.0541077,
1.445833325,291.0930786,
1.44749999,292.4417114,
1.449166775,290.7313538,
1.45083344,290.2926025,
1.452499986,291.8036194,
1.454166651,291.0652466,
1.455833316,290.7514954,
1.4575001,291.7590332,
1.459166765,290.9884644,
1.460833311,291.1924744,
1.462499976,289.6134949,
1.464166641,288.6397095,
1.465833426,291.7514954,
1.467500091,289.6073608,
1.469166636,290.2259521,
1.470833302,289.2960815,
1.472499967,288.7174072,
1.474166751,290.1355591,
1.475833416,288.8224182,
1.477500081,291.9220886,
1.479166627,289.7179565,
1.480833292,289.6925964,
1.482500076,288.967926,
1.484166741,289.9877319,
1.485833406,290.4083252,
1.487499952,288.3108826,
1.489166617,289.6287537,
1.490833402,289.9167786,
1.492500067,289.460907,
1.494166732,288.2162476,
1.495833278,286.6165771,
1.497499943,289.0700378,
1.499166727,288.2561646,
1.500833392,288.7989197,
1.502500057,288.0905762,
1.504166722,289.7338867,
1.505833268,287.8756409,
1.507500052,288.2668457,
1.509166718,286.8530579,
1.510833383,287.485321,
1.512500048,287.8231201,
1.514166594,287.0438843,
1.515833378,289.3030701,
1.517500043,290.6144104,
1.519166708,288.3614197,
1.520833373,288.2092285,
1.522499919,288.242981,
1.524166703,288.3619995,
1.525833368,288.4309998,
1.527500033,287.7193909,
1.529166698,287.243927,
1.530833364,287.4343567,
1.532500029,287.2410583,
1.534166694,288.1804199,
1.535833359,290.3795776,
1.537500024,286.7067566,
1.539166689,289.5402222,
1.540833354,286.8969421,
1.542500019,286.2408142,
1.544166684,285.0213623,
1.545833349,287.2811584,
1.547500014,287.4402771,
1.549166799,286.2476196,
1.550833344,285.0715942,
1.55250001,287.0308228,
1.554166675,285.1601868,
1.55583334,287.2147827,
1.557500124,284.9336243,
1.55916667,287.0682068,
1.560833335,285.407196,
1.5625,287.4137878,
1.564166665,286.89328,
1.565833449,285.2815247,
1.567499995,284.62146,
1.56916666,285.5922241,
1.570833325,287.607666,
1.57249999,283.8016357,
1.574166775,284.4017029,
1.57583344,285.3235779,
1.577499986,284.68573,
1.579166651,285.6381836,
1.580833316,284.7755127,
1.5825001,284.084198,
1.584166765,284.8769836,
1.585833311,283.1763306,
1.587499976,284.6827087,
1.589166641,285.0897522,
1.590833426,283.9849548,
1.592500091,284.3334656,
1.594166636,284.4685669,
1.595833302,285.1536865,
1.597499967,283.4406128,
1.599166751,284.3586731,
1.600833416,283.9708862,
1.602500081,282.6758423,
1.604166627,284.0377502,
1.605833292,284.476532,
1.607500076,283.7389221,
1.609166741,284.4006348,
1.610833406,285.5103455,
1.612499952,283.5788269,
1.614166617,283.6447449,
1.615833402,284.2768555,
1.617500067,282.2009277,
1.619166732,283.9405823,
1.620833278,284.7424927,
1.622499943,283.5606689,
1.624166727,282.9473877,
1.625833392,284.2385254,
1.627500057,283.3933716,
1.629166722,283.6957703,
1.630833268,281.0062256,
1.632500052,282.5569458,
1.634166718,283.2817383,
1.635833383,283.0158691,
1.637500048,282.9778748,
1.639166594,284.0881348,
1.640833378,283.7216187,
1.642500043,283.5079651,
1.644166708,284.2159424,
1.645833373,282.2861328,
1.647499919,285.2973022,
1.649166703,282.0259705,
1.650833368,282.5318604,
1.652500033,281.9242554,
1.654166698,283.7854309,
1.655833364,283.3061523,
1.657500029,280.6152039,
1.659166694,283.3417053,
1.660833359,281.3990479,
1.662500024,281.8052979,
1.664166689,282.2131042,
1.665833354,282.3466492,
1.667500019,282.3968811,
1.669166684,282.3861084,
1.670833349,281.6849365,
1.672500014,281.9025574,
1.674166799,282.4924316,
1.675833344,281.0317383,
1.67750001,282.3340149,
1.679166675,281.9328003,
1.68083334,282.7877502,
1.682500124,281.2281799,
1.68416667,280.2874451,
1.685833335,281.571106,
1.6875,281.534729,
1.689166665,280.9718018,
1.690833449,283.0351868,
1.692499995,281.8939514,
1.69416666,281.9807434,
1.695833325,280.7713928,
1.69749999,278.27771,
1.699166775,281.1547546,
1.70083344,281.2064819,
1.702499986,280.1571045,
1.704166651,283.2520752,
1.705833316,282.2506714,
1.7075001,281.9142456,
1.709166765,280.0932007,
1.710833311,281.3214722,
1.712499976,279.4490967,
1.714166641,278.7170105,
1.715833426,281.6190186,
1.717500091,280.7598877,
1.719166636,280.8971863,
1.720833302,280.4114075,
1.722499967,280.0836182,
1.724166751,280.4584045,
1.725833416,280.1428528,
1.727500081,280.9714355,
1.729166627,280.096283,
1.730833292,278.9064941,
1.732500076,279.4537659,
1.734166741,281.7242737,
1.735833406,279.7683105,
1.737499952,280.080719,
1.739166617,279.9297791,
1.740833402,278.3807068,
1.742500067,279.6217651,
1.744166732,278.709137,
1.745833278,277.829895,
1.747499943,280.6169434,
1.749166727,280.0480347,
1.750833392,281.0063477,
1.752500057,278.4313965,
1.754166722,278.2128906,
1.755833268,276.5129395,
1.757500052,280.2000732,
1.759166718,280.0547791,
1.760833383,278.6748657,
1.762500048,279.0339661,
1.764166594,278.8096924,
1.765833378,279.6391296,
1.767500043,279.691864,
1.769166708,280.5958252,
1.770833373,279.2828064,
1.772499919,279.3241577,
1.774166703,280.4013672,
1.775833368,279.2912292,
1.777500033,278.9816284,
1.779166698,277.9648132,
1.780833364,279.3363342,
1.782500029,277.4626465,
1.784166694,279.0479126,
1.785833359,277.8097839,
1.787500024,279.2482605,
1.789166689,280.3384094,
1.790833354,278.0804749,
1.792500019,279.0864563,
1.794166684,277.495697,
1.795833349,280.5279541,
1.797500014,277.8903198,
1.799166799,278.4482727,
1.800833344,277.8694458,
1.80250001,276.8304138,
1.804166675,278.0567017,
1.80583334,276.13797,
1.807500124,277.8837891,
1.80916667,277.1172485,
1.810833335,276.3040771,
1.8125,279.3725281,
1.814166665,279.0071411,
1.815833449,277.4355164,
1.817499995,278.0450745,
1.81916666,278.7160645,
1.820833325,279.3458252,
1.82249999,277.1188354,
1.824166775,277.5095215,
1.82583344,277.3565979,
1.827499986,276.2176208,
1.829166651,276.57724,
1.830833316,276.2442322,
1.8325001,276.6783447,
1.834166765,278.1546936,
1.835833311,278.3925781,
1.837499976,278.5299683,
1.839166641,278.2974854,
1.840833426,277.0265198,
1.842500091,276.6134033,
1.844166636,275.9075317,
1.845833302,279.2713928,
1.847499967,278.4090576,
1.849166751,277.5880737,
1.850833416,277.7781067,
1.852500081,276.4298706,
1.854166627,276.7024536,
1.855833292,276.0805359,
1.857500076,275.6940002,
1.859166741,277.3983459,
1.860833406,277.5588379,
1.862499952,275.6841125,
1.864166617,274.7467346,
1.865833402,277.2898254,
1.867500067,276.5653076,
1.869166732,276.239563,
1.870833278,277.4552917,
1.872499943,275.8618469,
1.874166727,275.0414124,
1.875833392,277.5730286,
1.877500057,275.9426575,
1.879166722,276.028717,
1.880833268,276.3171082,
1.882500052,274.2840576,
1.884166718,275.6917725,
1.885833383,275.0503235,
1.887500048,275.4295654,
1.889166594,274.3173828,
1.890833378,275.5418396,
1.892500043,275.0993958,
1.894166708,275.4994812,
1.895833373,276.9567566,
1.897499919,274.6508179,
1.899166703,274.7650757,
1.900833368,275.8989563,
1.902500033,276.3052063,
1.904166698,277.1907043,
1.905833364,274.1102905,
1.907500029,274.8787537,
1.909166694,276.1193542,
1.910833359,276.1219482,
1.912500024,275.5681152,
1.914166689,277.2030945,
1.915833354,275.177002,
1.917500019,277.7637939,
1.919166684,276.4117126,
1.920833349,275.2043152,
1.922500014,275.074646,
1.924166799,274.9298706,
1.925833344,273.8028259,
1.92750001,274.4245911,
1.929166675,273.7124329,
1.93083334,274.5621643,
1.932500124,274.2803955,
1.93416667,275.4136047,
1.935833335,275.8620605,
1.9375,276.27948,
1.939166665,275.5452576,
1.940833449,273.3146362,
1.942499995,276.5558167,
1.94416666,274.8228455,
1.945833325,274.7698669,
1.94749999,274.1976318,
1.949166775,273.8448181,
1.95083344,274.7496948,
1.952499986,274.8606873,
1.954166651,275.3474121,
1.955833316,275.1210938,
1.9575001,274.9251709,
1.959166765,274.4382935,
1.960833311,274.0758972,
1.962499976,274.1476746,
1.964166641,273.6925354,
1.965833426,276.0196838,
1.967500091,274.9276733,
1.969166636,274.3869324,
1.970833302,274.3563538,
1.972499967,273.4700012,
1.974166751,273.311554,
1.975833416,274.6437683,
1.977500081,274.7163696,
1.979166627,275.0126343,
1.980833292,274.8381653,
1.982500076,273.8415527,
1.984166741,272.7401733,
1.985833406,273.9700928,
1.987499952,273.6217957,
1.989166617,276.5508118,
1.990833402,272.8322449,
1.992500067,273.550293,
1.994166732,274.2377625,
1.995833278,272.4082947,
1.997499943,274.8100281,
1.999166727,274.255127,
2.000833273,273.1917725,
2.002500057,274.081604,
2.004166603,272.5210876,
2.005833387,274.3256226,
2.007500172,275.5762939,
2.009166718,274.9241638,
2.010833263,274.483551,
2.012500048,273.2998657,
2.014166594,273.8471985,
2.015833378,272.8901672,
2.017500162,272.8180542,
2.019166708,272.5765076,
2.020833254,273.8623962,
2.022500038,274.5623779,
2.024166822,274.3089294,
2.025833368,274.370636,
2.027499914,273.3996582,
2.029166698,274.6834412,
2.030833244,273.2262878,
2.032500029,272.9744263,
2.034166813,272.375,
2.035833359,273.6127014,
2.037499905,272.3882446,
2.039166689,273.0785522,
2.040833473,273.1557922,
2.042500019,273.0577087,
2.044166803,272.604126,
2.045833349,272.3748474,
2.047499895,272.3630676,
2.049166679,274.291626,
2.050833464,271.8726501,
2.05250001,272.3618774,
2.054166555,274.223999,
2.05583334,273.0119934,
2.057500124,273.7953491,
2.05916667,271.5396423,
2.060833454,272.5402222,
2.0625,273.2033386,
2.064166546,272.7186584,
2.06583333,273.8391724,
2.067500114,273.1994019,
2.06916666,272.913269,
2.070833445,272.271637,
2.07249999,271.3959656,
2.074166775,271.6833191,
2.075833321,272.6825256,
2.077500105,272.7229614,
2.079166651,272.2671814,
2.080833197,271.5974121,
2.082499981,273.311676,
2.084166765,274.0966492,
2.085833311,271.4959106,
2.087500095,273.9146423,
2.089166641,273.4207764,
2.090833426,273.5028687,
2.092499971,273.7024231,
2.094166756,272.4524231,
2.095833302,273.4676208,
2.097500086,272.8091431,
2.099166632,272.7505493,
2.100833416,271.7712708,
2.102499962,271.8636475,
2.104166746,272.1645813,
2.105833292,273.2770691,
2.107500076,270.8993225,
2.109166622,272.2320862,
2.110833406,273.5655212,
2.112499952,272.3538818,
2.114166737,273.822113,
2.115833521,272.9301453,
2.117500067,272.3752136,
2.119166613,271.5869446,
2.120833397,271.1505127,
2.122499943,271.3997803,
2.124166727,271.5332947,
2.125833273,271.54776,
2.127500057,271.0602417,
2.129166603,271.9858398,
2.130833387,271.871582,
2.132500172,270.9231262,
2.134166718,272.3790894,
2.135833502,270.9475708,
2.137500048,271.649353,
2.139166832,271.9332581,
2.140833378,272.132019,
2.142500162,271.7366333,
2.144166708,271.9544373,
2.145833254,271.4543762,
2.147500038,271.7604065,
2.149166584,271.8649902,
2.150833368,272.2606812,
2.152500153,270.7063599,
2.154166698,271.5678406,
2.155833483,270.083374,
2.157500029,273.4332581,
2.159166813,270.5722656,
2.160833597,269.5956726,
2.162499905,269.8448792,
2.164166689,270.9213257,
2.165833235,271.6687622,
2.167500019,271.5317993,
2.169166803,273.0474854,
2.170833349,270.9895935,
2.172500134,271.2895203,
2.174166679,272.1311035,
2.175833464,271.1264038,
2.177500248,271.0730896,
2.179166555,271.9026794,
2.18083334,272.6546326,
2.182499886,270.438446,
2.18416667,270.6774597,
2.185833454,270.1487427,
2.1875,272.2079468,
2.189166784,270.2566528,
2.19083333,271.5898438,
2.192500114,273.0635376,
2.194166899,270.3783875,
2.195833445,272.7771606,
2.19749999,271.8155823,
2.199166536,269.8622131,
2.200833321,269.8976746,
2.202500105,270.6283569,
2.204166651,269.5394897,
2.205833435,269.9234924,
2.207499981,270.0111084,
2.209166765,270.8731995,
2.210833549,269.5643311,
2.212500095,268.9977722,
2.21416688,270.7436829,
2.215833187,268.9059753,
2.217499971,270.5005798,
2.219166756,270.8466187,
2.220833302,270.2936707,
2.222500086,269.2599792,
2.224166632,269.2254333,
2.225833416,270.6290283,
2.2275002,268.708374,
2.229166746,269.8164063,
2.23083353,270.0802002,
2.232499838,270.1868591,
2.234166622,270.1265564,
2.235833406,269.9840088,
2.237499952,271.65271,
2.239166737,272.1650696,
2.240833282,272.430481,
2.242500067,269.919342,
2.244166851,271.4745789,
2.245833397,271.940155,
2.247500181,269.4559631,
2.249166727,269.6307678,
2.250833273,270.953064,
2.252500057,269.6999512,
2.254166603,270.1614685,
2.255833387,269.5973816,
2.257499933,270.1988525,
2.259166718,270.4986877,
2.260833502,270.8937988,
2.262500048,269.917511,
2.264166832,268.850708,
2.265833378,269.7252808,
2.267500162,269.8857422,
2.269166708,269.0088501,
2.270833254,270.3323364,
2.272500038,270.2129517,
2.274166584,269.3822327,
2.275833368,269.6248169,
2.277500153,272.1289063,
2.279166698,269.5576782,
2.280833483,270.4932556,
2.282500029,270.3575134,
2.284166813,269.3339539,
2.285833597,268.7103577,
2.287499905,270.1996155,
2.289166689,269.0662537,
2.290833235,270.3377075,
2.292500019,271.1951599,
2.294166803,269.1533203,
2.295833349,270.1809998,
2.297500134,268.6104736,
2.299166679,270.5531006,
2.300833464,268.9059753,
2.302500248,269.0819397,
2.304166555,270.0100708,
2.30583334,268.3904114,
2.307499886,269.0250244,
2.30916667,270.137085,
2.310833454,268.4748535,
2.3125,268.8410339,
2.314166784,268.955719,
2.31583333,268.2987366,
2.317500114,267.1755066,
2.319166899,270.0798645,
2.320833445,270.7380371,
2.32249999,270.1640625,
2.324166536,267.0761719,
2.325833321,268.6842041,
2.327500105,270.3795776,
2.329166651,268.8998718,
2.330833435,267.3304443,
2.332499981,269.5515747,
2.334166765,269.1478577,
2.335833549,268.430603,
2.337500095,268.3725586,
2.33916688,267.6968079,
2.340833187,268.7308655,
2.342499971,269.4212036,
2.344166756,268.2279968,
2.345833302,268.4397278,
2.347500086,268.4276428,
2.349166632,268.026947,
2.350833416,269.5678711,
2.3525002,268.635437,
2.354166746,270.1238098,
2.35583353,269.2563782,
2.357499838,268.1516724,
2.359166622,267.8549194,
2.360833406,270.0092468,
2.362499952,269.098938,
2.364166737,269.4746704,
2.365833282,268.7838745,
2.367500067,268.7007446,
2.369166851,270.0232239,
2.370833397,269.1489258,
2.372500181,270.3190918,
2.374166727,268.4108887,
2.375833273,267.4859924,
2.377500057,268.1095276,
2.379166603,268.3259888,
2.380833387,268.831665,
2.382499933,269.1923828,
2.384166718,269.3667297,
2.385833502,268.6139832,
2.387500048,270.0279236,
2.389166832,267.3146973,
2.390833378,267.1644592,
2.392500162,267.9933777,
2.394166708,269.4833679,
2.395833254,268.8442078,
2.397500038,269.6826172,
2.399166584,267.7008057,
2.400833368,268.4954529,
2.402500153,266.9858398,
2.404166698,267.4368591,
2.405833483,268.7926941,
2.407500029,267.0312805,
2.409166813,270.8778076,
2.410833597,268.74646,
2.412499905,271.4879456,
2.414166689,270.0325928,
2.415833235,268.2158203,
2.417500019,268.1920776,
2.419166803,271.0747986,
2.420833349,267.8388672,
2.422500134,267.7640076,
2.424166679,268.7593384,
2.425833464,268.2956543,
2.427500248,267.6411438,
2.429166555,267.6550293,
2.43083334,267.8777466,
2.432499886,266.8120422,
2.43416667,267.8300476,
2.435833454,268.0569458,
2.4375,270.0494995,
2.439166784,268.0501404,
2.44083333,268.5964355,
2.442500114,268.447998,
2.444166899,270.6203003,
2.445833445,267.4320068,
2.44749999,266.1871948,
2.449166536,266.14151,
2.450833321,267.2051392,
2.452500105,267.8350525,
2.454166651,267.981842,
2.455833435,267.6528015,
2.457499981,268.0305786,
2.459166765,266.995575,
2.460833549,268.5348206,
2.462500095,267.7679749,
2.46416688,268.4934082,
2.465833187,268.9727478,
2.467499971,267.5962524,
2.469166756,267.5301514,
2.470833302,266.5226135,
2.472500086,268.0967712,
2.474166632,266.4519043,
2.475833416,267.7929077,
2.4775002,268.9190369,
2.479166746,268.3670044,
2.48083353,266.3377686,
2.482499838,266.2044678,
2.484166622,266.7895203,
2.485833406,268.5144043,
2.487499952,265.8477173,
2.489166737,266.767334,
2.490833282,268.4311218,
2.492500067,267.8049927,
2.494166851,266.0803528,
2.495833397,266.7636719,
2.497500181,266.1487122,
2.499166727,267.6665649,
2.500833273,266.4892578,
2.502500057,267.3051147,
2.504166603,266.9309387,
2.505833387,266.980072,
2.507499933,268.1508789,
2.509166718,267.3121948,
2.510833502,268.5592957,
2.512500048,269.0179138,
2.514166832,267.9567871,
2.515833378,268.2775269,
2.517500162,268.8919067,
2.519166708,265.2359314,
2.520833254,266.4146729,
2.522500038,267.3724365,
2.524166584,267.9495544,
2.525833368,266.630127,
2.527500153,267.5845032,
2.529166698,265.9779053,
2.530833483,268.5802002,
2.532500029,268.440155,
2.534166813,266.7993164,
2.535833597,264.2400818,
2.537499905,265.6664124,
2.539166689,267.1495972,
2.540833235,267.3391113,
2.542500019,267.0557861,
2.544166803,265.7016907,
2.545833349,268.0858154,
2.547500134,267.6058655,
2.549166679,266.62323,
2.550833464,267.5611877,
2.552500248,266.1720886,
2.554166555,267.6612244,
2.55583334,264.9747925,
2.557499886,265.6036377,
2.55916667,265.4567566,
2.560833454,265.7102356,
2.5625,267.2637024,
2.564166784,266.4367676,
2.56583333,267.1491394,
2.567500114,266.6065369,
2.569166899,266.5774536,
2.570833445,266.7572632,
2.57249999,266.4529724,
2.574166536,266.4684448,
2.575833321,266.9359741,
2.577500105,267.5367737,
2.579166651,267.5239258,
2.580833435,267.5810242,
2.582499981,266.9033203,
2.584166765,267.7590637,
2.585833549,265.4046936,
2.587500095,268.1520081,
2.58916688,266.0015564,
2.590833187,267.0726013,
2.592499971,266.7126465,
2.594166756,265.379425,
2.595833302,265.5375977,
2.597500086,266.1104736,
2.599166632,265.3088989,
2.600833416,265.401825,
2.6025002,266.0687256,
2.604166746,267.2303467,
2.60583353,265.6645508,
2.607499838,265.6350403,
2.609166622,266.2861328,
2.610833406,265.5605774,
2.612499952,266.1122437,
2.614166737,265.5546265,
2.615833282,265.5395203,
2.617500067,267.7453003,
2.619166851,266.5058289,
2.620833397,264.6871033,
2.622500181,265.7391968,
2.624166727,266.531311,
2.625833273,265.5697937,
2.627500057,266.0596313,
2.629166603,265.7064514,
2.630833387,265.4976501,
2.632499933,264.4490967,
2.634166718,264.8143921,
2.635833502,266.3392639,
2.637500048,268.4809265,
2.639166832,266.5631104,
2.640833378,265.23172,
2.642500162,270.1322632,
2.644166708,267.5770264,
2.645833254,266.9446716,
2.647500038,266.6378174,
2.649166584,265.7181396,
2.650833368,266.1899109,
2.652500153,265.9434509,
2.654166698,265.9537048,
2.655833483,266.1794128,
2.657500029,266.2325134,
2.659166813,264.8064575,
2.660833597,266.2241516,
2.662499905,264.9295349,
2.664166689,266.9056702,
2.665833235,266.2001648,
2.667500019,267.1853638,
2.669166803,265.5618286,
2.670833349,266.6802979,
2.672500134,266.5144653,
2.674166679,265.6100159,
2.675833464,264.9265137,
2.677500248,265.4189758,
2.679166555,266.6089172,
2.68083334,265.5245056,
2.682499886,264.5053711,
2.68416667,264.9208069,
2.685833454,265.8102722,
2.6875,266.681427,
2.689166784,264.2658386,
2.69083333,264.8773499,
2.692500114,265.2405701,
2.694166899,265.8161621,
2.695833445,267.0501404,
2.69749999,264.8837585,
2.699166536,265.4995117,
2.700833321,265.4256592,
2.702500105,266.043396,
2.704166651,265.9150696,
2.705833435,266.5054321,
2.707499981,265.8613281,
2.709166765,266.568512,
2.710833549,265.9714966,
2.712500095,266.6942139,
2.71416688,264.8134155,
2.715833187,265.7418823,
2.717499971,265.2637634,
2.719166756,265.275238,
2.720833302,265.9180908,
2.722500086,264.4094238,
2.724166632,265.5895081,
2.725833416,265.4761963,
2.7275002,265.7210388,
2.729166746,266.0487976,
2.73083353,266.7527771,
2.732499838,266.7789307,
2.734166622,264.3798218,
2.735833406,264.8192749,
2.737499952,265.9982605,
2.739166737,266.0128174,
2.740833282,266.4830933,
2.742500067,266.3934021,
2.744166851,265.564209,
2.745833397,266.7805786,
2.747500181,266.1365967,
2.749166727,265.4255676,
2.750833273,265.1030273,
2.752500057,265.1250305,
2.754166603,264.7972107,
2.755833387,265.7554626,
2.757499933,265.245697,
2.759166718,265.8355713,
2.760833502,264.2994995,
2.762500048,265.7390747,
2.764166832,264.352417,
2.765833378,264.798584,
2.767500162,265.0117493,
2.769166708,265.5615845,
2.770833254,264.9565125,
2.772500038,264.9885559,
2.774166584,264.9728088,
2.775833368,265.4819336,
2.777500153,266.7371521,
2.779166698,263.0851135,
2.780833483,264.816925,
2.782500029,265.4929199,
2.784166813,265.3153381,
2.785833597,264.28125,
2.787499905,265.8883057,
2.789166689,263.703064,
2.790833235,266.2333679,
2.792500019,263.6999207,
2.794166803,264.8765564,
2.795833349,264.533783,
2.797500134,265.1379395,
2.799166679,264.7858276,
2.800833464,264.5731506,
2.802500248,264.2480164,
2.804166555,263.7323914,
2.80583334,264.1767273,
2.807499886,264.6225586,
2.80916667,266.1195068,
2.810833454,263.8846436,
2.8125,263.9460449,
2.814166784,265.2193298,
2.81583333,263.6265259,
2.817500114,264.0584717,
2.819166899,264.4848022,
2.820833445,264.6916809,
2.82249999,265.5898438,
2.824166536,264.1264648,
2.825833321,263.4233398,
2.827500105,264.2541199,
2.829166651,264.8894043,
2.830833435,264.5193481,
2.832499981,264.6107178,
2.834166765,264.1160278,
2.835833549,264.3795166,
2.837500095,265.1322632,
2.83916688,266.1335144,
2.840833187,264.2260742,
2.842499971,264.0413818,
2.844166756,263.6026306,
2.845833302,265.126709,
2.847500086,263.2018738,
2.849166632,264.9618835,
2.850833416,265.590271,
2.8525002,264.9914246,
2.854166746,263.749054,
2.85583353,263.2181702,
2.857499838,264.125,
2.859166622,264.8363647,
2.860833406,265.2365417,
2.862499952,264.4446716,
2.864166737,264.7313538,
2.865833282,263.3670654,
2.867500067,264.2345886,
2.869166851,264.5134583,
2.870833397,264.5379028,
2.872500181,264.4057922,
2.874166727,263.8479614,
2.875833273,265.5531616,
2.877500057,264.9999084,
2.879166603,263.6879883,
2.880833387,265.7477722,
2.882499933,264.497345,
2.884166718,266.4647827,
2.885833502,263.4006653,
2.887500048,262.8641052,
2.889166832,265.8059082,
2.890833378,264.6312256,
2.892500162,264.5735168,
2.894166708,264.6477661,
2.895833254,265.0916748,
2.897500038,263.0348206,
2.899166584,263.1129456,
2.900833368,264.0605469,
2.902500153,264.7027588,
2.904166698,264.3652954,
2.905833483,264.0458069,
2.907500029,264.9159241,
2.909166813,263.9713135,
2.910833597,263.5367126,
2.912499905,265.2501831,
2.914166689,264.6062622,
2.915833235,264.1329956,
2.917500019,263.7880249,
2.919166803,265.8539429,
2.920833349,265.9545288,
2.922500134,263.4655762,
2.924166679,265.7489319,
2.925833464,264.3117065,
2.927500248,264.6505127,
2.929166555,263.9861755,
2.93083334,263.8363342,
2.932499886,263.4941711,
2.93416667,263.1120911,
2.935833454,265.3157959,
2.9375,263.0291138,
2.939166784,264.6246948,
2.94083333,264.0072327,
2.942500114,263.0966797,
2.944166899,263.3718567,
2.945833445,263.1656494,
2.94749999,264.3034058,
2.949166536,262.1180725,
2.950833321,264.4522705,
2.952500105,264.3962097,
2.954166651,262.490448,
2.955833435,263.8143311,
2.957499981,264.1203308,
2.959166765,265.2059021,
2.960833549,264.9456787,
2.962500095,264.1121521,
2.96416688,264.0670776,
2.965833187,265.4608459,
2.967499971,263.227356,
2.969166756,262.3514404,
2.970833302,264.4472046,
2.972500086,266.9009094,
2.974166632,262.6504211,
2.975833416,262.8127747,
2.9775002,264.3904724,
2.979166746,266.3421631,
2.98083353,264.6123047,
2.982499838,263.8238831,
2.984166622,265.1519775,
2.985833406,264.4709473,
2.987499952,262.9457092,
2.989166737,264.4484863,
2.990833282,263.6326294,
2.992500067,263.4424438,
2.994166851,265.0242615,
2.995833397,262.6708984,
2.997500181,262.9897156,
2.999166727,264.7102661,
3.000833273,263.5107117,
3.002500057,263.3965149,
3.004166603,263.9233398,
3.005833387,264.1083069,
3.007499933,263.2741394,
3.009166718,266.4954224,
3.010833502,263.7371521,
3.012500048,263.9586182,
3.014166832,264.1245422,
3.015833378,262.9364929,
3.017500162,264.2985229,
3.019166708,264.8216248,
3.020833254,262.2381897,
3.022500038,264.0914001,
3.024166584,263.6503296,
3.025833368,262.4535522,
3.027500153,260.4299622,
3.029166698,262.6698303,
3.030833483,263.6919556,
3.032500029,264.1977234,
3.034166813,262.9979858,
3.035833597,264.2789001,
3.037499905,262.6566467,
3.039166689,264.6039429,
3.040833235,262.8218384,
3.042500019,262.2062988,
3.044166803,263.3953552,
3.045833349,264.4591064,
3.047500134,263.4946899,
3.049166679,262.9828491,
3.050833464,265.2358704,
3.052500248,266.0732727,
3.054166555,264.7264709,
3.05583334,264.1773682,
3.057499886,262.7834167,
3.05916667,264.9818726,
3.060833454,265.5100708,
3.0625,262.3097839,
3.064166784,265.002655,
3.06583333,264.1775208,
3.067500114,263.6525269,
3.069166899,264.1401672,
3.070833445,264.3865967,
3.07249999,264.0396118,
3.074166536,264.0979004,
3.075833321,262.2441101,
3.077500105,261.4859314,
3.079166651,263.2235107,
3.080833435,263.8342285,
3.082499981,265.3180237,
3.084166765,262.2485657,
3.085833549,263.8174744,
3.087500095,262.7568665,
3.08916688,264.2825317,
3.090833187,262.0226746,
3.092499971,263.4629517,
3.094166756,265.0775146,
3.095833302,263.6744385,
3.097500086,262.4319458,
3.099166632,263.8164978,
3.100833416,262.5584717,
3.1025002,263.2206421,
3.104166746,261.9217224,
3.10583353,263.3711548,
3.107499838,264.5668335,
3.109166622,261.8795471,
3.110833406,262.4784851,
3.112499952,261.7336731,
3.114166737,262.3968506,
3.115833282,262.7981873,
3.117500067,261.7546387,
3.119166851,263.5687256,
3.120833397,263.1917114,
3.122500181,262.410675,
3.124166727,262.0655518,
3.125833273,264.2308044,
3.127500057,263.1971741,
3.129166603,262.3653564,
3.130833387,264.3964539,
3.132499933,262.4157104,
3.134166718,263.2854309,
3.135833502,263.1465454,
3.137500048,263.3736572,
3.139166832,262.5075073,
3.140833378,263.1795349,
3.142500162,262.1755981,
3.144166708,263.0134277,
3.145833254,261.0292358,
3.147500038,263.0430908,
3.149166584,262.5245972,
3.150833368,262.8828735,
3.152500153,261.9472351,
3.154166698,261.8113403,
3.155833483,261.7458496,
3.157500029,263.6670837,
3.159166813,264.3920288,
3.160833597,264.0852661,
3.162499905,261.1651611,
3.164166689,260.5487671,
3.165833235,262.5516052,
3.167500019,261.8795166,
3.169166803,261.940979,
3.170833349,263.1531677,
3.172500134,261.4767761,
3.174166679,263.6947937,
3.175833464,263.8451538,
3.177500248,263.9635925,
3.179166555,263.6850281,
3.18083334,263.5059509,
3.182499886,262.3417664,
3.18416667,261.8863831,
3.185833454,263.5805359,
3.1875,264.7454834,
3.189166784,263.4200439,
3.19083333,263.3756104,
3.192500114,263.9822693,
3.194166899,262.9249573,
3.195833445,262.2601624,
3.19749999,262.7779236,
3.199166536,262.1820984,
3.200833321,262.7766418,
3.202500105,261.7004395,
3.204166651,261.1752014,
3.205833435,262.2205505,
3.207499981,262.4488831,
3.209166765,260.8482056,
3.210833549,263.2543945,
3.212500095,264.0796509,
3.21416688,263.3367004,
3.215833187,262.8683167,
3.217499971,261.4520874,
3.219166756,261.5030518,
3.220833302,262.7238464,
3.222500086,263.5723877,
3.224166632,263.4629517,
3.225833416,261.421875,
3.2275002,261.9647827,
3.229166746,261.9838867,
3.23083353,261.7059021,
3.232499838,263.688446,
3.234166622,262.3861694,
3.235833406,263.0939331,
3.237499952,262.8549194,
3.239166737,262.6143494,
3.240833282,261.3530273,
3.242500067,263.0158997,
3.244166851,263.4501953,
3.245833397,262.736084,
3.247500181,262.1493225,
3.249166727,262.7593384,
3.250833273,262.6319885,
3.252500057,263.4358826,
3.254166603,262.3483582,
3.255833387,263.2885132,
3.257499933,262.1138,
3.259166718,263.9547424,
3.260833502,262.1121521,
3.262500048,263.7854004,
3.264166832,263.1882935,
3.265833378,262.9751892,
3.267500162,260.5609436,
3.269166708,262.418335,
3.270833254,262.6395264,
3.272500038,263.0900574,
3.274166584,264.1433411,
3.275833368,261.684906,
3.277500153,264.6720581,
3.279166698,261.5742493,
3.280833483,262.6296082,
3.282500029,261.7462463,
3.284166813,262.9658813,
3.285833597,261.2740784,
3.287499905,263.7146301,
3.289166689,261.7997131,
3.290833235,260.8757324,
3.292500019,261.2129211,
3.294166803,261.7007141,
3.295833349,262.2654419,
3.297500134,262.1961365,
3.299166679,262.8650208,
3.300833464,261.6229553,
3.302500248,262.1150208,
3.304166555,261.9574585,
3.30583334,261.2126465,
3.307499886,262.6620178,
3.30916667,262.5454407,
3.310833454,260.9613953,
3.3125,262.4797363,
3.314166784,263.3205872,
3.31583333,261.6733093,
3.317500114,262.4492798,
3.319166899,262.5884705,
3.320833445,262.5532837,
3.32249999,264.6698608,
3.324166536,261.2745972,
3.325833321,262.7285156,
3.327500105,262.7138367,
3.329166651,261.7527466,
3.330833435,262.1847839,
3.332499981,263.2871399,
3.334166765,262.6057739,
3.335833549,261.5955811,
3.337500095,262.4035034,
3.33916688,262.4202881,
3.340833187,261.5527954,
3.342499971,261.361969,
3.344166756,261.5591125,
3.345833302,260.3258667,
3.347500086,261.2572021,
3.349166632,261.1008301,
3.350833416,261.024353,
3.3525002,263.3073425,
3.354166746,260.9894104,
3.35583353,260.337677,
3.357499838,262.2227478,
3.359166622,261.6259155,
3.360833406,261.8230286,
3.362499952,262.1960144,
3.364166737,261.9281921,
3.365833282,262.9252625,
3.367500067,261.6143494,
3.369166851,262.5486145,
3.370833397,260.4308777,
3.372500181,262.4190063,
3.374166727,260.6023865,
3.375833273,262.7179565,
3.377500057,261.3462524,
3.379166603,262.3218994,
3.380833387,260.5317993,
3.382499933,261.9367065,
3.384166718,262.2846375,
3.385833502,261.2009888,
3.387500048,261.7963867,
3.389166832,262.2433472,
3.390833378,262.512146,
3.392500162,262.7785339,
3.394166708,261.9291382,
3.395833254,262.0574646,
3.397500038,263.0317993,
3.399166584,262.3037415,
3.400833368,262.7887268,
3.402500153,261.7222595,
3.404166698,262.3796387,
3.405833483,262.5612488,
3.407500029,258.8497925,
3.409166813,261.9558716,
3.410833597,261.6558228,
3.412499905,261.1896667,
3.414166689,261.2437744,
3.415833235,262.5168457,
3.417500019,262.0813904,
3.419166803,262.7886658,
3.420833349,261.4727783,
3.422500134,261.7146606,
3.424166679,262.2244873,
3.425833464,259.5997925,
3.427500248,260.8403015,
3.429166555,260.3534851,
3.43083334,262.2774658,
3.432499886,262.3695984,
3.43416667,261.1499329,
3.435833454,262.8437195,
3.4375,262.6628418,
3.439166784,261.9303894,
3.44083333,261.7027283,
3.442500114,261.4473572,
3.444166899,260.9526978,
3.445833445,262.5332947,
3.44749999,261.1968079,
3.449166536,261.0627441,
3.450833321,261.0191345,
3.452500105,261.3407288,
3.454166651,259.93927,
3.455833435,260.975647,
3.457499981,261.0818787,
3.459166765,261.2902527,
3.460833549,261.9319458,
3.462500095,262.7168884,
3.46416688,261.7059937,
3.465833187,260.957489,
3.467499971,259.9790955,
3.469166756,261.967041,
3.470833302,262.9945984,
3.472500086,260.5741577,
3.474166632,260.4977722,
3.475833416,262.2179565,
3.4775002,261.4277954,
3.479166746,261.0673218,
3.48083353,261.617157,
3.482499838,259.6860657,
3.484166622,261.5502625,
3.485833406,261.516571,
3.487499952,261.4156494,
3.489166737,260.9342041,
3.490833282,261.9926147,
3.492500067,261.2607117,
3.494166851,261.8171387,
3.495833397,261.2263489,
3.497500181,262.2104492,
3.499166727,262.0513306,
3.500833273,260.791687,
3.502500057,260.3077087,
3.504166603,261.8865967,
3.505833387,261.6602783,
3.507499933,262.5539856,
3.509166718,261.8686218,
3.510833502,260.406189,
3.512500048,263.5950012,
3.514166832,261.2139282,
3.515833378,261.0761108,
3.517500162,261.7067261,
3.519166708,260.0316162,
3.520833254,261.4267273,
3.522500038,260.608429,
3.524166584,260.8931274,
3.525833368,259.9291382,
3.527500153,260.8798218,
3.529166698,259.3456116,
3.530833483,260.1351929,
3.532500029,259.8983765,
3.534166813,261.0455627,
3.535833597,261.4359131,
3.537499905,260.9512939,
3.539166689,260.9729919,
3.540833235,259.177063,
3.542500019,262.4131165,
3.544166803,260.3683472,
3.545833349,261.513092,
3.547500134,261.9266968,
3.549166679,259.7311707,
3.550833464,259.5814819,
3.552500248,260.950531,
3.554166555,260.7774658,
3.55583334,260.0296021,
3.557499886,259.3058167,
3.55916667,261.96521,
3.560833454,261.3876953,
3.5625,260.9425049,
3.564166784,260.1639099,
3.56583333,260.9671936,
3.567500114,260.378418,
3.569166899,260.4557495,
3.570833445,261.2307434,
3.57249999,259.7918701,
3.574166536,261.5084229,
3.575833321,260.5426331,
3.577500105,260.3093262,
3.579166651,259.901825,
3.580833435,262.0905762,
3.582499981,261.177124,
3.584166765,261.1126709,
3.585833549,260.8049927,
3.587500095,261.9704285,
3.58916688,260.5861206,
3.590833187,261.6252441,
3.592499971,262.38974,
3.594166756,259.2724304,
3.595833302,262.3509827,
3.597500086,259.49646,
3.599166632,262.2780457,
3.600833416,261.2695618,
3.6025002,260.2081299,
3.604166746,260.2670288,
3.60583353,261.2611694,
3.607499838,259.1378784,
3.609166622,260.9557495,
3.610833406,260.2193604,
3.612499952,260.089447,
3.614166737,261.3103943,
3.615833282,261.1221924,
3.617500067,259.8231812,
3.619166851,261.5959167,
3.620833397,261.5032349,
3.622500181,260.4057617,
3.624166727,260.2920227,
3.625833273,261.6634216,
3.627500057,260.6301575,
3.629166603,260.2978821,
3.630833387,260.7402344,
3.632499933,261.6860962,
3.634166718,260.410553,
3.635833502,261.2812805,
3.637500048,260.7160034,
3.639166832,261.1035156,
3.640833378,260.7466736,
3.642500162,261.6661682,
3.644166708,259.7076111,
3.645833254,261.0719299,
3.647500038,260.2711182,
3.649166584,260.5756836,
3.650833368,259.5144043,
3.652500153,261.6542664,
3.654166698,260.4873047,
3.655833483,260.0042419,
3.657500029,259.7967834,
3.659166813,260.2116089,
3.660833597,261.0868225,
3.662499905,260.8290405,
3.664166689,259.5826416,
3.665833235,259.3449097,
3.667500019,260.5512695,
3.669166803,260.7145386,
3.670833349,259.0437317,
3.672500134,259.7496033,
3.674166679,259.8374634,
3.675833464,260.7529907,
3.677500248,261.0777283,
3.679166555,262.2099915,
3.68083334,258.6505127,
3.682499886,262.2373657,
3.68416667,260.7014465,
3.685833454,260.7756653,
3.6875,260.4074707,
3.689166784,258.0374146,
3.69083333,260.0553589,
3.692500114,261.7007141,
3.694166899,259.744751,
3.695833445,259.8192749,
3.69749999,260.3638916,
3.699166536,261.1168213,
3.700833321,259.4284058,
3.702500105,260.1714172,
3.704166651,261.1012573,
3.705833435,259.7272034,
3.707499981,262.0116272,
3.709166765,260.1374817,
3.710833549,260.0938416,
3.712500095,260.2001953,
3.71416688,260.7516174,
3.715833187,259.5978088,
3.717499971,260.7437744,
3.719166756,258.8409424,
3.720833302,260.5057678,
3.722500086,262.0707703,
3.724166632,261.2393799,
3.725833416,261.1718445,
3.7275002,260.7518921,
3.729166746,259.7525024,
3.73083353,260.490509,
3.732499838,259.5708923,
3.734166622,261.1746826,
3.735833406,260.4419556,
3.737499952,261.0187683,
3.739166737,260.6225281,
3.740833282,261.9477844,
3.742500067,260.4329529,
3.744166851,258.6773682,
3.745833397,261.1230164,
3.747500181,259.0301819,
3.749166727,260.3291016,
3.750833273,261.5908508,
3.752500057,261.1854248,
3.754166603,260.1566162,
3.755833387,258.0054016,
3.757499933,260.3344727,
3.759166718,259.7043152,
3.760833502,260.1846924,
3.762500048,260.8604736,
3.764166832,260.3627625,
3.765833378,260.0309143,
3.767500162,259.57901,
3.769166708,260.3219299,
3.770833254,261.4601135,
3.772500038,260.2053833,
3.774166584,259.4067993,
3.775833368,259.4517517,
3.777500153,258.9688721,
3.779166698,258.9377136,
3.780833483,259.2147827,
3.782500029,259.2148132,
3.784166813,258.6972351,
3.785833597,259.7712402,
3.787499905,260.5213623,
3.789166689,261.2593994,
3.790833235,258.5036316,
3.792500019,259.749939,
3.794166803,260.9544678,
3.795833349,259.25354,
3.797500134,259.5661316,
3.799166679,260.4245605,
3.800833464,260.2488403,
3.802500248,259.5141907,
3.804166555,260.5894775,
3.80583334,259.295166,
3.807499886,261.2523499,
3.80916667,259.0440979,
3.810833454,259.9784546,
3.8125,259.3592529,
3.814166784,261.0856323,
3.81583333,259.6679688,
3.817500114,259.5682678,
3.819166899,258.7954407,
3.820833445,260.5037231,
3.82249999,260.0102844,
3.824166536,260.600769,
3.825833321,261.2228394,
3.827500105,259.2092285,
3.829166651,259.7069702,
3.830833435,258.986145,
3.832499981,259.0024719,
3.834166765,260.4705811,
3.835833549,261.6017761,
3.837500095,258.4020386,
3.83916688,259.7615662,
3.840833187,260.2796631,
3.842499971,259.5748901,
3.844166756,260.4628601,
3.845833302,258.6946716,
3.847500086,260.5002747,
3.849166632,259.6791382,
3.850833416,259.7571716,
3.8525002,261.5198975,
3.854166746,261.3630371,
3.85583353,259.98703,
3.857499838,260.9506531,
3.859166622,260.486145,
3.860833406,260.778595,
3.862499952,259.3234253,
3.864166737,260.2728271,
3.865833282,260.5643311,
3.867500067,260.2848511,
3.869166851,259.8340454,
3.870833397,259.6380615,
3.872500181,262.6943665,
3.874166727,259.6703186,
3.875833273,260.4316101,
3.877500057,261.6843872,
3.879166603,259.5852966,
3.880833387,259.8959656,
3.882499933,261.1151123,
3.884166718,259.6357117,
3.885833502,261.823761,
3.887500048,260.0585632,
3.889166832,260.026886,
3.890833378,259.2330627,
3.892500162,258.06073,
3.894166708,260.5122986,
3.895833254,258.5956421,
3.897500038,259.8733521,
3.899166584,260.3871155,
3.900833368,259.3980408,
3.902500153,260.243103,
3.904166698,259.832489,
3.905833483,261.1312561,
3.907500029,260.7614136,
3.909166813,259.069519,
3.910833597,260.0834656,
3.912499905,259.2700195,
3.914166689,259.7409363,
3.915833235,258.6390991,
3.917500019,258.9538269,
3.919166803,259.3252869,
3.920833349,260.2945862,
3.922500134,259.9755554,
3.924166679,259.2097168,
3.925833464,259.7611694,
3.927500248,260.3502808,
3.929166555,259.3440857,
3.93083334,259.5858154,
3.932499886,259.7167969,
3.93416667,259.1529236,
3.935833454,258.2114563,
3.9375,260.2261658,
3.939166784,259.3532104,
3.94083333,258.2205505,
3.942500114,259.3066406,
3.944166899,259.762146,
3.945833445,260.7960815,
3.94749999,260.2482605,
3.949166536,261.7981873,
3.950833321,259.3034058,
3.952500105,260.12854,
3.954166651,258.8235474,
3.955833435,260.0700989,
3.957499981,260.3407593,
3.959166765,260.7827454,
3.960833549,260.9470825,
3.962500095,258.1259766,
3.96416688,260.2938843,
3.965833187,259.0984497,
3.967499971,259.498291,
3.969166756,260.3106689,
3.970833302,259.9518127,
3.972500086,259.1555786,
3.974166632,258.7285461,
3.975833416,260.1469421,
3.9775002,260.1217957,
3.979166746,258.8599548,
3.98083353,260.2500916,
3.982499838,257.9373779,
3.984166622,259.790741,
3.985833406,258.6799316,
3.987499952,259.3771362,
3.989166737,259.3484497,
3.990833282,259.7102661,
3.992500067,260.0487366,
3.994166851,259.8427429,
3.995833397,259.0254822,
3.997500181,260.9051208,
3.999166727,259.4243774,
4.000833511,258.911499,
4.002500057,258.9393311,
4.004166603,259.6821899,
4.005833626,260.497467,
4.007500172,259.7530823,
4.009166718,260.197113,
4.010833263,258.7984924,

