1,,
Time (min),Intensity (a.u.),
0.0008333333535,340.9458313,
0.002500000177,338.5401917,
0.004166666884,340.0718384,
0.005833333358,338.7568054,
0.007500000298,341.8335876,
0.009166667238,340.1448975,
0.01083333418,338.3034973,
0.01250000019,339.2835693,
0.01416666713,339.2963257,
0.01583333313,337.5734558,
0.01750000194,339.7471619,
0.01916666701,340.021698,
0.02083333395,339.8095093,
0.02250000089,337.9576721,
0.02416666783,340.2960205,
0.02583333477,339.3760986,
0.02749999985,342.5056458,
0.02916666679,338.665741,
0.03083333373,339.1584778,
0.03250000253,340.1824951,
0.03416666761,339.5724792,
0.03583333641,338.919342,
0.03750000149,338.0841675,
0.03916667029,340.4769897,
0.04083333537,338.9458008,
0.04250000045,340.7262268,
0.04416666925,341.1340332,
0.04583333433,337.8724365,
0.04750000313,339.8572693,
0.04916666821,339.2537537,
0.05083333328,340.0387878,
0.05250000209,339.4608154,
0.05416666716,338.6040649,
0.05583333597,338.6898804,
0.05750000104,340.1957703,
0.05916666612,338.8235168,
0.06083333492,339.4701843,
0.0625,338.1682129,
0.06416667253,338.8440247,
0.0658333376,337.4841919,
0.06750000268,339.8273621,
0.06916666776,341.2496643,
0.07083333284,339.4037476,
0.07249999791,339.203125,
0.07416667044,339.9780273,
0.07583333552,339.8157654,
0.0775000006,340.7270203,
0.07916666567,339.4107056,
0.08083333075,339.3204956,
0.08250000328,339.4315491,
0.08416666836,337.6083984,
0.08583333343,340.1642761,
0.08749999851,338.118988,
0.08916666359,340.1807556,
0.09083333611,340.2200317,
0.09250000119,339.5301819,
0.09416666627,338.9192505,
0.09583333135,338.0227356,
0.09749999642,340.2601929,
0.09916666895,339.776947,
0.100833334,340.8754272,
0.1024999991,337.7117004,
0.1041666642,338.5520325,
0.1058333293,341.3488159,
0.1075000018,338.690155,
0.1091666669,337.3596191,
0.1108333319,337.8413391,
0.112499997,338.5179443,
0.1141666621,339.1544495,
0.1158333346,339.6038513,
0.1174999997,339.9870911,
0.1191666648,339.4242554,
0.1208333299,339.2036743,
0.1224999949,340.1832581,
0.1241666749,340.4444275,
0.1258333325,338.1495361,
0.1274999976,339.8348083,
0.1291666627,339.0960083,
0.1308333278,339.8374634,
0.1325000077,339.8164978,
0.1341666728,339.306427,
0.1358333379,337.4351196,
0.137500003,341.2181091,
0.1391666681,338.8054199,
0.1408333331,338.4683228,
0.1424999982,339.1081543,
0.1441666782,338.7442627,
0.1458333284,338.0588989,
0.1475000083,337.7829285,
0.1491666585,340.3128052,
0.1508333385,339.8988342,
0.1525000036,338.1720886,
0.1541666687,341.1876526,
0.1558333337,339.2706909,
0.1574999988,338.4815674,
0.1591666639,338.779541,
0.1608333439,339.7675171,
0.162499994,341.8271179,
0.164166674,340.2622375,
0.1658333242,338.8770142,
0.1675000042,340.1141052,
0.1691666692,340.5118713,
0.1708333343,340.1074524,
0.1724999994,338.4456177,
0.1741666645,338.7589111,
0.1758333296,336.485321,
0.1775000095,338.6435242,
0.1791666597,339.7286682,
0.1808333397,339.78302,
0.1824999899,339.1802979,
0.1841666698,340.859436,
0.1858333498,337.04953,
0.1875,338.1386108,
0.18916668,338.4515076,
0.1908333302,338.4094849,
0.1925000101,339.3978882,
0.1941666752,337.9493103,
0.1958333403,337.8732605,
0.1975000054,338.2506714,
0.1991666704,338.7896118,
0.2008333355,339.0372314,
0.2025000155,338.5096741,
0.2041666657,338.6578064,
0.2058333457,339.4740295,
0.2074999958,338.9838562,
0.2091666758,340.245636,
0.2108333409,337.3737183,
0.212500006,339.0024109,
0.214166671,338.5101929,
0.2158333361,338.6643677,
0.2175000012,340.6037903,
0.2191666812,337.7483215,
0.2208333313,338.2743835,
0.2225000113,339.6043091,
0.2241666615,340.5415039,
0.2258333415,338.9620972,
0.2275000066,339.3141479,
0.2291666716,338.0060425,
0.2308333367,338.1141052,
0.2325000018,340.6707764,
0.2341666669,340.4642334,
0.2358333468,339.791626,
0.237499997,339.8586731,
0.239166677,340.478241,
0.2408333272,338.5848694,
0.2425000072,339.1101074,
0.2441666722,338.8312073,
0.2458333373,337.5144653,
0.2475000024,338.1624146,
0.2491666675,338.0411072,
0.2508333325,339.2636108,
0.2524999976,339.2994995,
0.2541666627,340.6124878,
0.2558333278,338.7720337,
0.2574999928,337.3253174,
0.2591666579,339.8900452,
0.2608333528,338.3514404,
0.2624999881,340.6464844,
0.264166683,339.3721008,
0.2658333182,338.8141174,
0.2675000131,338.7061768,
0.2691666484,340.4410095,
0.2708333433,339.0342712,
0.2725000083,339.7305298,
0.2741666734,340.4202881,
0.2758333385,339.9052124,
0.2775000036,338.1596375,
0.2791666687,339.5740356,
0.2808333337,339.4203491,
0.2824999988,338.4145813,
0.2841666937,339.4838562,
0.285833329,337.5307312,
0.287499994,339.6781921,
0.2891666591,338.0423584,
0.290833354,338.8285217,
0.2925000191,339.7744446,
0.2941666543,337.0621033,
0.2958333194,338.6436462,
0.2975000143,339.6200562,
0.2991666794,339.9815979,
0.3008333445,339.5760498,
0.3024999797,338.4246521,
0.3041666746,340.5882874,
0.3058333397,337.9279785,
0.3075000048,338.646759,
0.3091666996,339.7431641,
0.3108333349,336.0725708,
0.3125,339.9620972,
0.3141666651,341.5567017,
0.31583336,337.7713623,
0.317500025,338.5507202,
0.3191666603,338.6364441,
0.3208333254,337.9893799,
0.3225000203,341.4644165,
0.3241666853,339.5160522,
0.3258333504,338.9337158,
0.3274999857,338.1921387,
0.3291666806,339.8224182,
0.3308333457,338.0742188,
0.3325000107,337.1339417,
0.3341666758,338.7187195,
0.3358333409,340.0082397,
0.337500006,336.9243774,
0.339166671,339.7693481,
0.3408333361,336.5035095,
0.342500031,339.499176,
0.3441666663,338.4441833,
0.3458333313,338.3070984,
0.3474999964,337.9777222,
0.3491666913,339.0926514,
0.3508333564,338.2805786,
0.3524999917,337.1929932,
0.3541666567,338.1254272,
0.3558333516,337.2196045,
0.3575000167,338.2709656,
0.3591666818,338.653595,
0.360833317,338.5256042,
0.3625000119,338.9359131,
0.364166677,339.0776367,
0.3658333421,339.6625671,
0.3675000072,337.9588013,
0.3691666722,339.9689026,
0.3708333373,337.2774658,
0.3725000024,337.9963379,
0.3741666675,339.2528381,
0.3758333623,338.8449097,
0.3774999976,338.8004761,
0.3791666627,340.387146,
0.3808333278,338.1797485,
0.3825000226,337.6920166,
0.3841666877,337.4324341,
0.385833323,337.9361877,
0.3874999881,339.161499,
0.389166683,338.5050659,
0.390833348,338.6034851,
0.3925000131,338.2845764,
0.3941666484,339.1225891,
0.3958333433,339.1924133,
0.3975000083,337.4451904,
0.3991666734,338.3164673,
0.4008333385,338.5842896,
0.4025000036,341.0087891,
0.4041666687,338.4787598,
0.4058333337,338.8788147,
0.4074999988,336.5612793,
0.4091666937,337.7132568,
0.410833329,338.934967,
0.412499994,339.4280701,
0.4141666591,338.7926025,
0.415833354,339.4129639,
0.4175000191,338.8582153,
0.4191666543,339.6678162,
0.4208333194,339.81427,
0.4225000143,338.0106812,
0.4241666794,338.4812012,
0.4258333445,338.1528015,
0.4274999797,338.9515076,
0.4291666746,338.4099731,
0.4308333397,337.2270508,
0.4325000048,338.3018799,
0.4341666996,336.8337402,
0.4358333349,338.3971252,
0.4375,336.8207397,
0.4391666651,337.2410889,
0.44083336,340.0345154,
0.442500025,339.7124023,
0.4441666603,339.3302612,
0.4458333254,343.5656738,
0.4475000203,338.0110168,
0.4491666853,337.2612305,
0.4508333504,338.8207397,
0.4524999857,337.9233704,
0.4541666806,339.9751282,
0.4558333457,338.8016968,
0.4575000107,339.4453125,
0.4591666758,338.7794189,
0.4608333409,338.6038818,
0.462500006,337.7221375,
0.464166671,337.2215271,
0.4658333361,338.927124,
0.467500031,337.1053162,
0.4691666663,337.5172424,
0.4708333313,337.4327087,
0.4724999964,338.5990601,
0.4741666913,337.5629578,
0.4758333564,337.5881348,
0.4774999917,338.7393188,
0.4791666567,337.558197,
0.4808333516,337.0643616,
0.4825000167,336.3733215,
0.4841666818,338.2518311,
0.485833317,337.2307739,
0.4875000119,338.0934448,
0.489166677,339.4128723,
0.4908333421,339.605896,
0.4925000072,336.3041687,
0.4941666722,337.8734741,
0.4958333373,341.1364136,
0.4975000024,338.9459534,
0.4991666675,338.061615,
0.5008333325,340.6772766,
0.5024999976,339.5474243,
0.5041666627,338.0323792,
0.5058333278,339.7731323,
0.5074999928,337.8049011,
0.5091666579,338.3566284,
0.510833323,334.8202515,
0.5124999881,337.5641174,
0.5141666532,338.8113098,
0.5158333182,338.4587097,
0.5175000429,340.8726807,
0.5191666484,338.3721924,
0.5208333135,338.5327759,
0.5224999785,337.9641113,
0.5241667032,336.3420105,
0.5258333683,337.9476318,
0.5274999738,338.4510193,
0.5291666389,337.7510376,
0.5308333635,338.1367188,
0.5325000286,338.4571533,
0.5341666341,337.867157,
0.5358333588,338.2134094,
0.5375000238,337.7819214,
0.5391666889,337.9352722,
0.540833354,336.8649902,
0.5424999595,338.8582764,
0.5441666842,335.90625,
0.5458333492,338.8170166,
0.5475000143,339.3124084,
0.5491666794,338.5857544,
0.5508333445,338.6575317,
0.5525000095,338.5913391,
0.5541666746,337.6233215,
0.5558333993,338.2703247,
0.5575000048,337.782074,
0.5591666698,339.81604,
0.5608333349,339.4171448,
0.5625,337.9582214,
0.5641667247,337.4384766,
0.5658333302,337.7893372,
0.5674999952,337.6995239,
0.5691667199,335.7089539,
0.5708333254,338.6445313,
0.5725000501,337.4441528,
0.5741666555,337.0812073,
0.5758333206,337.0179749,
0.5775000453,338.2613525,
0.5791666508,337.2597961,
0.5808333755,339.6179504,
0.5825000405,339.5429688,
0.584166646,338.8537292,
0.5858333707,339.2731323,
0.5874999762,337.5502625,
0.5891667008,336.0075684,
0.5908333659,337.304718,
0.5924999714,337.9870911,
0.5941666961,339.610321,
0.5958333611,335.5598145,
0.5975000262,337.4328918,
0.5991666913,337.8413086,
0.6008332968,337.2704163,
0.6025000215,338.4764404,
0.6041666865,338.6863098,
0.6058333516,338.9278259,
0.6075000167,338.2967834,
0.6091666818,336.2916565,
0.6108333468,338.0053406,
0.6125000119,337.6515198,
0.614166677,340.1450806,
0.6158333421,338.6246033,
0.6175000072,337.697937,
0.6191666722,338.0185852,
0.6208333373,338.9834595,
0.622500062,337.7537537,
0.6241666675,336.0215149,
0.6258333325,338.1680908,
0.6274999976,336.3876038,
0.6291666627,338.4053345,
0.6308333874,337.2338562,
0.6324999928,338.4958496,
0.6341666579,337.379303,
0.6358333826,336.1120911,
0.6374999881,338.955658,
0.6391667128,339.0675049,
0.6408333182,339.5368652,
0.6424999833,340.70047,
0.644166708,338.5733337,
0.6458333135,338.6009216,
0.6475000381,338.6870728,
0.6491667032,335.8062744,
0.6508333087,336.0261841,
0.6525000334,338.4832153,
0.6541666389,337.4180603,
0.6558333635,339.894165,
0.6575000286,338.1600952,
0.6591666341,337.6678162,
0.6608333588,335.3021545,
0.6625000238,336.9949341,
0.6641666889,338.1005554,
0.665833354,337.071106,
0.6674999595,335.8875122,
0.6691666842,338.2615967,
0.6708333492,338.7695618,
0.6725000143,337.7108765,
0.6741666794,336.361908,
0.6758333445,338.8395691,
0.6775000095,337.9164734,
0.6791666746,336.561615,
0.6808333993,338.3973083,
0.6825000048,337.7726746,
0.6841666698,337.675354,
0.6858333349,339.8606567,
0.6875,338.1294556,
0.6891667247,338.9374084,
0.6908333302,339.1037598,
0.6924999952,337.3605042,
0.6941667199,337.27005,
0.6958333254,336.994751,
0.6975000501,336.0423889,
0.6991666555,339.2006226,
0.7008333206,340.9642944,
0.7025000453,336.9700012,
0.7041666508,338.0679321,
0.7058333755,337.1349487,
0.7075000405,338.2269897,
0.709166646,338.6213989,
0.7108333707,337.5681152,
0.7124999762,337.145874,
0.7141667008,337.6286011,
0.7158333659,338.2528076,
0.7174999714,336.1323547,
0.7191666961,339.3459167,
0.7208333611,336.9187012,
0.7225000262,338.1889343,
0.7241666913,337.7982788,
0.7258332968,337.4478149,
0.7275000215,336.9501953,
0.7291666865,337.2131042,
0.7308333516,337.9266357,
0.7325000167,336.9145203,
0.7341666818,338.0976563,
0.7358333468,336.297699,
0.7375000119,338.4931335,
0.739166677,335.763092,
0.7408333421,336.8725281,
0.7425000072,337.5579224,
0.7441666722,336.8369751,
0.7458333373,338.6578064,
0.747500062,339.5695496,
0.7491666675,337.7350464,
0.7508333325,338.4866943,
0.7524999976,336.8656311,
0.7541666627,336.6492615,
0.7558333874,337.5390015,
0.7574999928,338.481842,
0.7591666579,337.9429932,
0.7608333826,338.5744019,
0.7624999881,339.6132813,
0.7641667128,338.1131287,
0.7658333182,339.6036072,
0.7674999833,335.6615906,
0.769166708,336.8006897,
0.7708333135,339.2719727,
0.7725000381,337.7880859,
0.7741667032,337.8661194,
0.7758333087,338.2569885,
0.7775000334,337.1352844,
0.7791666389,337.704895,
0.7808333635,337.0280762,
0.7825000286,338.3563538,
0.7841666341,338.1781616,
0.7858333588,337.955658,
0.7875000238,337.3890076,
0.7891666889,336.7518005,
0.790833354,338.1066589,
0.7924999595,338.6798706,
0.7941666842,338.7332764,
0.7958333492,337.0566406,
0.7975000143,337.1608887,
0.7991666794,337.4457703,
0.8008333445,339.6810913,
0.8025000095,336.4326782,
0.8041666746,338.8863831,
0.8058333993,337.4544983,
0.8075000048,336.6872864,
0.8091666698,336.0015564,
0.8108333349,339.1304321,
0.8125,339.3907471,
0.8141667247,338.0370178,
0.8158333302,335.9489441,
0.8174999952,336.5037842,
0.8191667199,337.7277832,
0.8208333254,337.9601135,
0.8225000501,337.7329712,
0.8241666555,338.9683228,
0.8258333206,337.3852539,
0.8275000453,337.0469971,
0.8291666508,337.1598206,
0.8308333755,338.9688721,
0.8325000405,336.5108337,
0.834166646,336.3745117,
0.8358333707,338.6999512,
0.8374999762,339.4007874,
0.8391667008,339.4763794,
0.8408333659,336.4706116,
0.8424999714,338.806366,
0.8441666961,336.8565063,
0.8458333611,337.4433594,
0.8475000262,337.8312988,
0.8491666913,337.6768799,
0.8508332968,337.5893555,
0.8525000215,336.6136169,
0.8541666865,338.3045044,
0.8558333516,339.3721313,
0.8575000167,335.7030945,
0.8591666818,338.3591919,
0.8608333468,335.5783081,
0.8625000119,337.6828003,
0.864166677,336.6174927,
0.8658333421,335.3720398,
0.8675000072,337.4271851,
0.8691666722,337.3538208,
0.8708333373,337.9889221,
0.872500062,340.6306152,
0.8741666675,338.1815491,
0.8758333325,337.9633789,
0.8774999976,336.7870483,
0.8791666627,337.5966797,
0.8808333874,337.5925598,
0.8824999928,337.7060547,
0.8841666579,336.608551,
0.8858333826,339.2097778,
0.8874999881,337.9539795,
0.8891667128,336.787262,
0.8908333182,337.1148376,
0.8924999833,335.9993286,
0.894166708,337.0766296,
0.8958333135,338.4884338,
0.8975000381,337.4212036,
0.8991667032,337.9587402,
0.9008333087,337.5411072,
0.9025000334,337.8949585,
0.9041666389,336.4797363,
0.9058333635,336.9042969,
0.9075000286,339.4237366,
0.9091666341,338.7837219,
0.9108333588,337.9573975,
0.9125000238,337.9165344,
0.9141666889,336.1927185,
0.915833354,337.7535706,
0.9174999595,338.4171753,
0.9191666842,338.116272,
0.9208333492,336.96698,
0.9225000143,338.1654053,
0.9241666794,336.4450073,
0.9258333445,336.8178406,
0.9275000095,337.3140259,
0.9291666746,338.2720642,
0.9308333993,336.9719849,
0.9325000048,338.0090637,
0.9341666698,336.1895447,
0.9358333349,336.2785339,
0.9375,337.3796692,
0.9391667247,336.4208984,
0.9408333302,339.5446777,
0.9424999952,336.9024963,
0.9441667199,337.7584534,
0.9458333254,339.3406067,
0.9475000501,339.0343933,
0.9491666555,337.9898071,
0.9508333206,338.1072998,
0.9525000453,335.1376648,
0.9541666508,338.3102112,
0.9558333755,335.8510742,
0.9575000405,339.1688232,
0.959166646,338.7866516,
0.9608333707,338.6902161,
0.9624999762,336.6811829,
0.9641667008,336.6246643,
0.9658333659,335.3480835,
0.9674999714,337.0331421,
0.9691666961,337.7009888,
0.9708333611,336.9476624,
0.9725000262,338.0179138,
0.9741666913,335.558136,
0.9758332968,337.874939,
0.9775000215,335.8853149,
0.9791666865,337.6534729,
0.9808333516,337.0498962,
0.9825000167,336.8297119,
0.9841666818,338.1487427,
0.9858333468,337.6733704,
0.9875000119,337.2342224,
0.989166677,337.5455627,
0.9908333421,337.5050659,
0.9925000072,337.51828,
0.9941666722,338.2025452,
0.9958333373,338.3555908,
0.997500062,336.6105347,
0.9991666675,337.9428711,
1.000833273,337.0173035,
1.002500057,338.4028625,
1.004166722,337.0480652,
1.005833387,337.9706116,
1.007500052,336.4824219,
1.009166598,337.6818237,
1.010833383,337.0776672,
1.012500048,337.9905701,
1.014166713,336.9629822,
1.015833378,336.4303894,
1.017500043,337.178772,
1.019166708,337.5024719,
1.020833373,336.6523438,
1.022500038,337.0341187,
1.024166703,337.2677002,
1.025833368,337.4473877,
1.027500033,338.4051819,
1.029166698,337.3427124,
1.030833364,338.2667847,
1.032500029,336.0816345,
1.034166694,326.3025513,
1.035833359,291.4926758,
1.037500024,282.41745,
1.039166689,267.5170593,
1.040833354,262.0386963,
1.042500019,255.2689362,
1.044166684,317.8654785,
1.045833349,321.2533569,
1.047500014,322.046051,
1.049166679,317.9251404,
1.050833344,320.3022766,
1.05250001,321.1319275,
1.054166675,320.3547363,
1.05583334,322.5177307,
1.057500005,321.6442566,
1.05916667,322.136322,
1.060833335,321.2946167,
1.0625,320.7840576,
1.064166665,315.3379211,
1.06583333,248.6045685,
1.067499995,325.3392944,
1.06916666,280.5854797,
1.070833325,284.3809509,
1.07249999,302.2637634,
1.074166775,288.967804,
1.07583344,282.1245117,
1.077499986,304.5194092,
1.079166651,295.9577026,
1.080833316,275.288269,
1.0825001,282.5967102,
1.084166765,312.7152405,
1.085833311,292.1270752,
1.087499976,277.7062378,
1.089166641,297.5444641,
1.090833426,290.7792969,
1.092500091,267.9099121,
1.094166636,296.0350952,
1.095833302,282.5534668,
1.097499967,256.8046875,
1.099166751,295.9248962,
1.100833416,314.2414856,
1.102500081,325.740387,
1.104166627,325.3413391,
1.105833292,322.6973267,
1.107500076,324.5131531,
1.109166741,321.9118958,
1.110833406,323.6991882,
1.112499952,323.2585754,
1.114166617,321.1564636,
1.115833402,322.8348999,
1.117500067,324.9654541,
1.119166732,323.0473328,
1.120833278,323.039032,
1.122499943,324.4840088,
1.124166727,321.1900024,
1.125833392,321.4107666,
1.127500057,320.2427979,
1.129166722,321.5100098,
1.130833268,322.2522583,
1.132500052,321.9826965,
1.134166718,320.9785156,
1.135833383,319.9302673,
1.137500048,320.6485596,
1.139166594,320.8562012,
1.140833378,320.5589294,
1.142500043,321.4639282,
1.144166708,317.8830261,
1.145833373,320.4906616,
1.147499919,318.1609802,
1.149166703,318.8776245,
1.150833368,317.5049438,
1.152500033,317.6954651,
1.154166698,317.2032776,
1.155833364,318.9818115,
1.157500029,318.5136719,
1.159166694,317.0253601,
1.160833359,317.147644,
1.162500024,317.1456909,
1.164166689,318.4423828,
1.165833354,317.1933289,
1.167500019,315.7190247,
1.169166684,316.9818726,
1.170833349,316.7346497,
1.172500014,314.0184021,
1.174166799,315.5802612,
1.175833344,315.1401367,
1.17750001,315.8278198,
1.179166675,315.2682495,
1.18083334,316.5281067,
1.182500124,317.3484192,
1.18416667,314.7089844,
1.185833335,315.4810791,
1.1875,314.0601501,
1.189166665,314.671051,
1.190833449,317.0655518,
1.192499995,313.3905029,
1.19416666,313.2513428,
1.195833325,314.0892639,
1.19749999,315.2679138,
1.199166775,314.1990356,
1.20083344,315.0282593,
1.202499986,314.2948914,
1.204166651,312.7903748,
1.205833316,315.1484985,
1.2075001,312.9040833,
1.209166765,314.0232239,
1.210833311,312.8366089,
1.212499976,312.1408691,
1.214166641,313.5562134,
1.215833426,312.6753235,
1.217500091,313.2817078,
1.219166636,312.5,
1.220833302,312.2477417,
1.222499967,312.0677185,
1.224166751,312.2374268,
1.225833416,311.7048645,
1.227500081,313.156189,
1.229166627,311.3868408,
1.230833292,310.2821045,
1.232500076,311.5227356,
1.234166741,310.8952942,
1.235833406,312.293396,
1.237499952,311.2423401,
1.239166617,311.0143127,
1.240833402,311.4576111,
1.242500067,310.4831848,
1.244166732,311.3008118,
1.245833278,311.8818359,
1.247499943,309.293457,
1.249166727,309.7732544,
1.250833392,311.0042725,
1.252500057,310.23703,
1.254166722,310.4176331,
1.255833268,309.6877441,
1.257500052,309.7878418,
1.259166718,310.5880737,
1.260833383,308.4328918,
1.262500048,309.4771118,
1.264166594,309.9237366,
1.265833378,308.8013916,
1.267500043,308.0859375,
1.269166708,309.8043518,
1.270833373,308.6167297,
1.272499919,309.0903625,
1.274166703,310.2691956,
1.275833368,307.038147,
1.277500033,308.7025452,
1.279166698,308.5558777,
1.280833364,308.7242432,
1.282500029,308.6710815,
1.284166694,307.7576599,
1.285833359,310.3466797,
1.287500024,306.5187683,
1.289166689,306.4645996,
1.290833354,307.7238464,
1.292500019,308.2777405,
1.294166684,306.687561,
1.295833349,307.5342407,
1.297500014,307.0084229,
1.299166799,305.7722473,
1.300833344,305.9676208,
1.30250001,307.7312622,
1.304166675,305.3185425,
1.30583334,307.2961121,
1.307500124,306.8477478,
1.30916667,307.0875549,
1.310833335,308.0700684,
1.3125,307.0348511,
1.314166665,305.8129883,
1.315833449,306.3478394,
1.317499995,306.9353638,
1.31916666,304.59375,
1.320833325,306.578949,
1.32249999,305.3151245,
1.324166775,304.6657715,
1.32583344,304.4723511,
1.327499986,303.202301,
1.329166651,306.8587952,
1.330833316,302.3524475,
1.3325001,305.6745605,
1.334166765,303.5270081,
1.335833311,303.4748535,
1.337499976,302.9436035,
1.339166641,305.6426086,
1.340833426,304.4273987,
1.342500091,305.3230286,
1.344166636,305.4399414,
1.345833302,304.4346313,
1.347499967,302.6120605,
1.349166751,303.5717163,
1.350833416,303.1559448,
1.352500081,303.7815247,
1.354166627,302.1083374,
1.355833292,302.157196,
1.357500076,302.8817749,
1.359166741,303.9808044,
1.360833406,300.870697,
1.362499952,301.0305176,
1.364166617,303.1148682,
1.365833402,301.9666748,
1.367500067,302.3649597,
1.369166732,302.2580261,
1.370833278,304.3265991,
1.372499943,302.8170776,
1.374166727,302.100769,
1.375833392,302.219696,
1.377500057,301.2966614,
1.379166722,301.8644714,
1.380833268,301.313385,
1.382500052,302.9310913,
1.384166718,302.0300903,
1.385833383,301.5718689,
1.387500048,301.4133911,
1.389166594,301.0925293,
1.390833378,302.4233398,
1.392500043,299.3294678,
1.394166708,301.3864746,
1.395833373,299.8458252,
1.397499919,301.4685059,
1.399166703,300.157074,
1.400833368,301.6011353,
1.402500033,300.5847168,
1.404166698,298.3102417,
1.405833364,299.9236145,
1.407500029,300.9056091,
1.409166694,300.0101318,
1.410833359,299.5448608,
1.412500024,298.6257629,
1.414166689,299.3241577,
1.415833354,299.837738,
1.417500019,298.4867554,
1.419166684,298.9880371,
1.420833349,298.9093628,
1.422500014,298.9788208,
1.424166799,298.1638794,
1.425833344,300.4159851,
1.42750001,299.4669495,
1.429166675,298.1262207,
1.43083334,299.6530457,
1.432500124,299.4863892,
1.43416667,298.5645447,
1.435833335,298.2315979,
1.4375,299.8817139,
1.439166665,298.7243652,
1.440833449,298.8126221,
1.442499995,299.2527771,
1.44416666,298.8400269,
1.445833325,298.337616,
1.44749999,298.3572693,
1.449166775,298.3730774,
1.45083344,297.424408,
1.452499986,297.2011719,
1.454166651,297.1760559,
1.455833316,296.8443604,
1.4575001,298.3482056,
1.459166765,298.5237122,
1.460833311,297.7637329,
1.462499976,298.210144,
1.464166641,296.9150391,
1.465833426,297.5936279,
1.467500091,296.9157104,
1.469166636,297.4957581,
1.470833302,297.0815735,
1.472499967,296.4081116,
1.474166751,296.5942993,
1.475833416,297.9768066,
1.477500081,295.8901672,
1.479166627,297.6399841,
1.480833292,297.0255432,
1.482500076,296.12677,
1.484166741,297.0206604,
1.485833406,296.0594788,
1.487499952,298.2937317,
1.489166617,295.9629517,
1.490833402,296.4367676,
1.492500067,297.2480774,
1.494166732,296.6365967,
1.495833278,297.9438782,
1.497499943,297.9017944,
1.499166727,297.1420898,
1.500833392,297.5011597,
1.502500057,297.051178,
1.504166722,297.4535217,
1.505833268,294.8180237,
1.507500052,296.686554,
1.509166718,297.201416,
1.510833383,295.1427307,
1.512500048,295.8037109,
1.514166594,296.6416321,
1.515833378,294.9712219,
1.517500043,294.5724792,
1.519166708,295.590332,
1.520833373,294.8023071,
1.522499919,295.5665283,
1.524166703,295.725769,
1.525833368,295.119751,
1.527500033,295.8710022,
1.529166698,295.7236023,
1.530833364,296.3003235,
1.532500029,294.3831787,
1.534166694,296.1420898,
1.535833359,295.1807861,
1.537500024,294.7156982,
1.539166689,293.4660034,
1.540833354,294.3286133,
1.542500019,294.4793701,
1.544166684,293.9428406,
1.545833349,292.3718262,
1.547500014,294.0830688,
1.549166799,294.4630432,
1.550833344,293.61203,
1.55250001,293.5440674,
1.554166675,293.4559021,
1.55583334,294.1896973,
1.557500124,293.8469543,
1.55916667,294.9670105,
1.560833335,294.6899414,
1.5625,292.917572,
1.564166665,294.2985229,
1.565833449,293.6878052,
1.567499995,293.8814392,
1.56916666,296.0003357,
1.570833325,294.7749634,
1.57249999,293.2060547,
1.574166775,293.5374756,
1.57583344,293.7098694,
1.577499986,293.210022,
1.579166651,293.5126648,
1.580833316,293.9466858,
1.5825001,293.6647034,
1.584166765,290.9226379,
1.585833311,294.1851196,
1.587499976,291.6965027,
1.589166641,292.4570618,
1.590833426,292.0757751,
1.592500091,294.6891785,
1.594166636,293.0138245,
1.595833302,292.9616394,
1.597499967,289.7239075,
1.599166751,292.5832825,
1.600833416,294.1843262,
1.602500081,294.2131348,
1.604166627,291.7518921,
1.605833292,291.4388428,
1.607500076,290.595459,
1.609166741,292.4934692,
1.610833406,290.7499084,
1.612499952,291.1242676,
1.614166617,292.8861694,
1.615833402,292.1651917,
1.617500067,292.5631714,
1.619166732,291.7375793,
1.620833278,291.1621704,
1.622499943,293.6017151,
1.624166727,292.4278564,
1.625833392,291.4359131,
1.627500057,294.12323,
1.629166722,291.703949,
1.630833268,294.5908813,
1.632500052,291.9548645,
1.634166718,290.6794739,
1.635833383,290.3115234,
1.637500048,292.1480408,
1.639166594,292.5889282,
1.640833378,291.3988037,
1.642500043,290.5956116,
1.644166708,290.0376282,
1.645833373,292.2676086,
1.647499919,291.8965149,
1.649166703,290.3382263,
1.650833368,291.3825684,
1.652500033,292.9373474,
1.654166698,291.0334473,
1.655833364,291.4198608,
1.657500029,290.7402039,
1.659166694,290.4073181,
1.660833359,290.4327087,
1.662500024,291.3152771,
1.664166689,289.609314,
1.665833354,290.9802856,
1.667500019,289.9623108,
1.669166684,290.557251,
1.670833349,290.8787537,
1.672500014,289.6528931,
1.674166799,290.1295166,
1.675833344,289.9281311,
1.67750001,289.1202087,
1.679166675,291.0210876,
1.68083334,289.8406982,
1.682500124,289.122345,
1.68416667,290.7791748,
1.685833335,290.1317749,
1.6875,291.1304321,
1.689166665,289.6865234,
1.690833449,290.6409912,
1.692499995,289.6091919,
1.69416666,290.164032,
1.695833325,290.6042786,
1.69749999,289.9563293,
1.699166775,289.4418945,
1.70083344,290.3888245,
1.702499986,289.3436584,
1.704166651,288.4229736,
1.705833316,290.2243347,
1.7075001,288.8446655,
1.709166765,287.7012939,
1.710833311,289.0755615,
1.712499976,289.1572571,
1.714166641,290.4613647,
1.715833426,288.1992188,
1.717500091,289.6507263,
1.719166636,289.7762756,
1.720833302,290.8038025,
1.722499967,288.481842,
1.724166751,290.7723083,
1.725833416,290.2876587,
1.727500081,288.8120422,
1.729166627,289.0440979,
1.730833292,289.7174377,
1.732500076,289.9117432,
1.734166741,289.302063,
1.735833406,288.3091736,
1.737499952,288.1961365,
1.739166617,288.0375977,
1.740833402,290.6433716,
1.742500067,289.0774231,
1.744166732,288.6974487,
1.745833278,287.4187317,
1.747499943,288.8014526,
1.749166727,289.3315735,
1.750833392,289.4610291,
1.752500057,289.1491394,
1.754166722,289.2147522,
1.755833268,288.0108948,
1.757500052,287.4876404,
1.759166718,289.9023132,
1.760833383,289.9466248,
1.762500048,287.9886475,
1.764166594,287.8935547,
1.765833378,289.9953918,
1.767500043,286.4952087,
1.769166708,288.4195557,
1.770833373,288.375824,
1.772499919,289.1551819,
1.774166703,286.7528687,
1.775833368,286.9235535,
1.777500033,286.0897827,
1.779166698,288.8605957,
1.780833364,289.3718262,
1.782500029,288.6915588,
1.784166694,288.2256775,
1.785833359,288.5491638,
1.787500024,287.8198547,
1.789166689,287.9936523,
1.790833354,287.480011,
1.792500019,287.558136,
1.794166684,287.7576294,
1.795833349,288.0490112,
1.797500014,285.9483032,
1.799166799,287.4240723,
1.800833344,286.4851074,
1.80250001,287.2577515,
1.804166675,287.3259583,
1.80583334,286.8871155,
1.807500124,286.5566101,
1.80916667,288.9490967,
1.810833335,286.6864929,
1.8125,288.1557922,
1.814166665,287.2420959,
1.815833449,287.7603455,
1.817499995,286.1203613,
1.81916666,288.0056152,
1.820833325,287.1401978,
1.82249999,286.0506592,
1.824166775,287.0630798,
1.82583344,289.01297,
1.827499986,286.3355103,
1.829166651,285.8923035,
1.830833316,286.1669312,
1.8325001,285.9872437,
1.834166765,285.9701538,
1.835833311,285.7355652,
1.837499976,286.1494141,
1.839166641,287.2224426,
1.840833426,286.7316284,
1.842500091,286.6717224,
1.844166636,286.6115417,
1.845833302,285.5568542,
1.847499967,284.5300293,
1.849166751,284.3249817,
1.850833416,288.1307068,
1.852500081,287.0630188,
1.854166627,285.5370178,
1.855833292,286.6765137,
1.857500076,286.3403931,
1.859166741,286.3520813,
1.860833406,286.6770935,
1.862499952,285.2229004,
1.864166617,286.8771057,
1.865833402,285.9370117,
1.867500067,286.6148376,
1.869166732,286.20224,
1.870833278,285.1271057,
1.872499943,285.5947266,
1.874166727,284.8331909,
1.875833392,287.3494263,
1.877500057,284.147522,
1.879166722,284.2717896,
1.880833268,285.5168762,
1.882500052,285.0619202,
1.884166718,284.8788147,
1.885833383,285.6164551,
1.887500048,285.6597595,
1.889166594,286.3721619,
1.890833378,283.4799194,
1.892500043,283.5039368,
1.894166708,283.613678,
1.895833373,285.6947632,
1.897499919,285.7250671,
1.899166703,284.7741089,
1.900833368,282.8049011,
1.902500033,286.4427795,
1.904166698,287.5612488,
1.905833364,285.5218506,
1.907500029,285.244751,
1.909166694,285.1442261,
1.910833359,284.3100586,
1.912500024,285.2022705,
1.914166689,285.7737122,
1.915833354,283.7970276,
1.917500019,286.8084106,
1.919166684,284.7514038,
1.920833349,284.4157715,
1.922500014,283.7848511,
1.924166799,285.418457,
1.925833344,283.9981689,
1.92750001,284.3053284,
1.929166675,283.7416687,
1.93083334,283.9712219,
1.932500124,285.3817749,
1.93416667,285.1694336,
1.935833335,284.0097351,
1.9375,284.9356995,
1.939166665,284.5870972,
1.940833449,285.1196594,
1.942499995,284.2993164,
1.94416666,282.7730713,
1.945833325,284.3707581,
1.94749999,282.930603,
1.949166775,284.2144775,
1.95083344,284.8420105,
1.952499986,283.9779968,
1.954166651,285.1818237,
1.955833316,283.7882996,
1.9575001,285.2636719,
1.959166765,283.8490295,
1.960833311,285.4475708,
1.962499976,283.5808411,
1.964166641,285.1584167,
1.965833426,281.085907,
1.967500091,283.4197083,
1.969166636,284.2388611,
1.970833302,283.309082,
1.972499967,284.6747742,
1.974166751,282.6027222,
1.975833416,283.8517456,
1.977500081,283.355072,
1.979166627,284.1313782,
1.980833292,284.7054749,
1.982500076,282.7054749,
1.984166741,283.8616943,
1.985833406,283.6340942,
1.987499952,282.8490601,
1.989166617,282.6923828,
1.990833402,283.9157104,
1.992500067,282.3842773,
1.994166732,282.7164307,
1.995833278,282.8153687,
1.997499943,282.7626648,
1.999166727,282.929718,
2.000833273,282.9758606,
2.002500057,283.6331787,
2.004166603,281.8193359,
2.005833387,283.6071472,
2.007500172,283.2568054,
2.009166718,284.8240051,
2.010833263,284.0396729,
2.012500048,281.8206482,
2.014166594,281.7554321,
2.015833378,284.1516113,
2.017500162,283.3034363,
2.019166708,285.0481262,
2.020833254,283.5658569,
2.022500038,281.7398376,
2.024166822,282.4737854,
2.025833368,283.0324402,
2.027499914,282.7235107,
2.029166698,280.4100647,
2.030833244,283.0256958,
2.032500029,281.0261536,
2.034166813,282.8909912,
2.035833359,281.1407166,
2.037499905,282.3094177,
2.039166689,281.9672852,
2.040833473,282.6526489,
2.042500019,282.7072449,
2.044166803,282.4382935,
2.045833349,283.2515564,
2.047499895,282.3184204,
2.049166679,283.0317078,
2.050833464,282.898407,
2.05250001,282.963501,
2.054166555,282.0546265,
2.05583334,282.4970398,
2.057500124,283.4106445,
2.05916667,282.368042,
2.060833454,280.7866516,
2.0625,281.1178589,
2.064166546,282.8544312,
2.06583333,280.9987183,
2.067500114,280.8813782,
2.06916666,284.0617065,
2.070833445,283.3542786,
2.07249999,282.9638367,
2.074166775,281.114563,
2.075833321,283.3985291,
2.077500105,281.4003601,
2.079166651,283.353302,
2.080833197,281.0113831,
2.082499981,282.6644287,
2.084166765,281.6749878,
2.085833311,283.76474,
2.087500095,280.0189514,
2.089166641,282.6977844,
2.090833426,281.6402588,
2.092499971,281.9049072,
2.094166756,280.594696,
2.095833302,279.9654541,
2.097500086,282.9025879,
2.099166632,281.2233276,
2.100833416,281.8822327,
2.102499962,281.9688416,
2.104166746,279.5371094,
2.105833292,281.2565002,
2.107500076,280.6688843,
2.109166622,281.2584839,
2.110833406,281.9158936,
2.112499952,281.4433289,
2.114166737,280.7399597,
2.115833521,280.1170959,
2.117500067,279.7739563,
2.119166613,281.9353943,
2.120833397,281.6401672,
2.122499943,280.817627,
2.124166727,278.0076294,
2.125833273,281.5847778,
2.127500057,282.9053955,
2.129166603,281.5589294,
2.130833387,280.0836487,
2.132500172,279.9220581,
2.134166718,280.4842834,
2.135833502,281.4854431,
2.137500048,280.734314,
2.139166832,281.3008423,
2.140833378,281.5331116,
2.142500162,282.5128479,
2.144166708,281.368866,
2.145833254,279.4994202,
2.147500038,280.8798218,
2.149166584,280.6273499,
2.150833368,279.5126038,
2.152500153,279.7902527,
2.154166698,280.3072205,
2.155833483,281.0679626,
2.157500029,280.5741272,
2.159166813,280.5432434,
2.160833597,279.6795959,
2.162499905,279.7501221,
2.164166689,279.0639038,
2.165833235,280.3031311,
2.167500019,280.3868408,
2.169166803,281.3204651,
2.170833349,281.5185547,
2.172500134,281.3611145,
2.174166679,282.0976563,
2.175833464,281.3858643,
2.177500248,279.204895,
2.179166555,281.0239563,
2.18083334,280.1301575,
2.182499886,278.920166,
2.18416667,279.9752502,
2.185833454,280.459137,
2.1875,279.5065308,
2.189166784,279.2652283,
2.19083333,280.9778442,
2.192500114,281.83078,
2.194166899,280.7167969,
2.195833445,280.7880554,
2.19749999,277.7460938,
2.199166536,280.8780518,
2.200833321,280.6063232,
2.202500105,280.7133179,
2.204166651,280.1792297,
2.205833435,280.2504578,
2.207499981,280.026947,
2.209166765,279.9234314,
2.210833549,280.0809021,
2.212500095,280.0211487,
2.21416688,280.6181335,
2.215833187,278.1409607,
2.217499971,281.008606,
2.219166756,279.0855408,
2.220833302,280.2383118,
2.222500086,278.0211792,
2.224166632,281.7365112,
2.225833416,279.6829834,
2.2275002,281.3022461,
2.229166746,280.9324646,
2.23083353,280.6619568,
2.232499838,278.309906,
2.234166622,282.0147705,
2.235833406,279.9526062,
2.237499952,279.4597778,
2.239166737,279.5806885,
2.240833282,279.2825012,
2.242500067,278.1114197,
2.244166851,280.0596619,
2.245833397,279.6839905,
2.247500181,278.924469,
2.249166727,281.5305786,
2.250833273,278.1604919,
2.252500057,279.0461731,
2.254166603,279.8827515,
2.255833387,278.9880371,
2.257499933,280.1343689,
2.259166718,278.7221375,
2.260833502,281.2355347,
2.262500048,280.7793579,
2.264166832,279.0004272,
2.265833378,279.2389221,
2.267500162,278.9371643,
2.269166708,281.1997986,
2.270833254,280.9072876,
2.272500038,281.2848206,
2.274166584,279.7131348,
2.275833368,278.9198303,
2.277500153,278.9829407,
2.279166698,277.8708496,
2.280833483,280.8643494,
2.282500029,279.3797607,
2.284166813,279.5669556,
2.285833597,279.3549805,
2.287499905,278.8084717,
2.289166689,279.151123,
2.290833235,278.3861084,
2.292500019,279.1500244,
2.294166803,279.5080261,
2.295833349,277.3632813,
2.297500134,277.796875,
2.299166679,278.4369202,
2.300833464,277.8204346,
2.302500248,279.6219482,
2.304166555,280.1840515,
2.30583334,277.3075867,
2.307499886,279.1326599,
2.30916667,278.7276001,
2.310833454,278.5264893,
2.3125,279.0224304,
2.314166784,278.6129456,
2.31583333,279.8459778,
2.317500114,279.3552856,
2.319166899,280.3241577,
2.320833445,279.4740601,
2.32249999,278.9532471,
2.324166536,278.1226196,
2.325833321,279.4583435,
2.327500105,279.9759521,
2.329166651,278.0559387,
2.330833435,280.9286194,
2.332499981,279.5439453,
2.334166765,277.9252625,
2.335833549,278.3020935,
2.337500095,278.4137268,
2.33916688,278.2946167,
2.340833187,277.9568176,
2.342499971,278.8502502,
2.344166756,278.4880371,
2.345833302,277.7972107,
2.347500086,279.0659485,
2.349166632,278.0922546,
2.350833416,277.1256409,
2.3525002,276.4959717,
2.354166746,277.8108521,
2.35583353,278.4429626,
2.357499838,278.4189758,
2.359166622,277.3982849,
2.360833406,277.4835205,
2.362499952,277.5549316,
2.364166737,277.4938965,
2.365833282,279.3781738,
2.367500067,278.4512634,
2.369166851,278.9745178,
2.370833397,277.0619812,
2.372500181,277.5902405,
2.374166727,279.0930786,
2.375833273,278.664032,
2.377500057,278.5152588,
2.379166603,276.7072144,
2.380833387,278.2681885,
2.382499933,277.4811401,
2.384166718,277.7248535,
2.385833502,277.2323303,
2.387500048,278.2363281,
2.389166832,278.2631531,
2.390833378,277.7680054,
2.392500162,279.1351013,
2.394166708,279.3539734,
2.395833254,279.6318359,
2.397500038,276.2158813,
2.399166584,277.5972595,
2.400833368,276.7535095,
2.402500153,278.3691101,
2.404166698,276.6748657,
2.405833483,276.2372131,
2.407500029,277.8446045,
2.409166813,278.0976257,
2.410833597,277.0739441,
2.412499905,276.5886841,
2.414166689,278.024353,
2.415833235,277.265564,
2.417500019,277.0074463,
2.419166803,276.434906,
2.420833349,275.507782,
2.422500134,276.9267578,
2.424166679,278.2398987,
2.425833464,278.3485718,
2.427500248,277.7111511,
2.429166555,277.6125793,
2.43083334,276.9553223,
2.432499886,277.6291809,
2.43416667,276.3020325,
2.435833454,276.6972351,
2.4375,276.4876709,
2.439166784,276.4172058,
2.44083333,277.9346313,
2.442500114,275.553833,
2.444166899,277.8218079,
2.445833445,277.5124207,
2.44749999,278.0896606,
2.449166536,277.9982605,
2.450833321,275.0801086,
2.452500105,277.2230225,
2.454166651,277.0315247,
2.455833435,277.0673523,
2.457499981,276.7406616,
2.459166765,277.2516785,
2.460833549,278.0286865,
2.462500095,276.8091431,
2.46416688,278.032196,
2.465833187,276.6112366,
2.467499971,277.0379333,
2.469166756,276.4870911,
2.470833302,279.0550537,
2.472500086,278.1983337,
2.474166632,278.442749,
2.475833416,276.910614,
2.4775002,278.1687012,
2.479166746,277.2177734,
2.48083353,277.7072754,
2.482499838,276.4508362,
2.484166622,278.3116455,
2.485833406,276.8494263,
2.487499952,275.365509,
2.489166737,277.1786499,
2.490833282,276.582428,
2.492500067,278.8994751,
2.494166851,276.3682556,
2.495833397,277.2388611,
2.497500181,277.7116699,
2.499166727,278.6822205,
2.500833273,277.9665833,
2.502500057,277.387085,
2.504166603,275.9189758,
2.505833387,276.3020325,
2.507499933,276.2543335,
2.509166718,276.2139282,
2.510833502,277.7840576,
2.512500048,275.2544861,
2.514166832,276.678833,
2.515833378,277.0902405,
2.517500162,278.1975403,
2.519166708,280.1200256,
2.520833254,276.0419312,
2.522500038,276.5125122,
2.524166584,275.728363,
2.525833368,276.9233704,
2.527500153,276.7249451,
2.529166698,276.9966125,
2.530833483,277.3846436,
2.532500029,278.6638184,
2.534166813,277.4358215,
2.535833597,275.9390869,
2.537499905,278.7935791,
2.539166689,276.2590027,
2.540833235,277.6042175,
2.542500019,277.8580017,
2.544166803,277.026947,
2.545833349,276.1720581,
2.547500134,275.0210571,
2.549166679,277.7089539,
2.550833464,276.785614,
2.552500248,278.0894165,
2.554166555,278.4660339,
2.55583334,276.3635864,
2.557499886,277.0073853,
2.55916667,276.869751,
2.560833454,275.8158264,
2.5625,277.296814,
2.564166784,275.8400879,
2.56583333,274.3463135,
2.567500114,277.1646118,
2.569166899,276.9296265,
2.570833445,275.638031,
2.57249999,276.8347473,
2.574166536,277.7906799,
2.575833321,275.4868774,
2.577500105,278.1671143,
2.579166651,275.7435303,
2.580833435,275.5614624,
2.582499981,277.9970703,
2.584166765,277.0707703,
2.585833549,276.3558655,
2.587500095,275.6996155,
2.58916688,277.8817139,
2.590833187,275.3083191,
2.592499971,276.1943054,
2.594166756,276.3015442,
2.595833302,276.7436829,
2.597500086,275.4413147,
2.599166632,275.914978,
2.600833416,276.3490295,
2.6025002,276.9279785,
2.604166746,277.3075256,
2.60583353,275.3412781,
2.607499838,276.3287354,
2.609166622,274.7861328,
2.610833406,276.7922668,
2.612499952,277.0836487,
2.614166737,277.6723633,
2.615833282,276.2639465,
2.617500067,275.9501648,
2.619166851,276.446228,
2.620833397,275.0083618,
2.622500181,276.213623,
2.624166727,275.7976074,
2.625833273,277.3420105,
2.627500057,275.813385,
2.629166603,276.8122864,
2.630833387,276.305481,
2.632499933,275.6305237,
2.634166718,275.499939,
2.635833502,274.5368958,
2.637500048,276.1681824,
2.639166832,275.9013977,
2.640833378,274.0794983,
2.642500162,276.4229431,
2.644166708,273.6478882,
2.645833254,274.4338074,
2.647500038,275.8632813,
2.649166584,275.8337708,
2.650833368,275.0632629,
2.652500153,276.127655,
2.654166698,275.803009,
2.655833483,276.6442566,
2.657500029,275.9952087,
2.659166813,277.2338562,
2.660833597,273.6229858,
2.662499905,275.2342529,
2.664166689,276.6586304,
2.665833235,276.5013733,
2.667500019,275.1517639,
2.669166803,275.5660095,
2.670833349,274.8791199,
2.672500134,275.353363,
2.674166679,275.0505066,
2.675833464,275.9408264,
2.677500248,274.4081421,
2.679166555,273.9258423,
2.68083334,274.535675,
2.682499886,276.4518738,
2.68416667,277.2357178,
2.685833454,274.717865,
2.6875,274.5392761,
2.689166784,274.0535278,
2.69083333,274.8618774,
2.692500114,274.2251587,
2.694166899,274.3791199,
2.695833445,275.000885,
2.69749999,277.3487549,
2.699166536,274.8691406,
2.700833321,276.3168335,
2.702500105,274.664856,
2.704166651,275.297821,
2.705833435,274.5649109,
2.707499981,274.9652405,
2.709166765,273.9302063,
2.710833549,274.7247009,
2.712500095,274.940155,
2.71416688,274.9528198,
2.715833187,274.0487671,
2.717499971,275.6476135,
2.719166756,274.3701782,
2.720833302,274.694458,
2.722500086,274.6019287,
2.724166632,273.9141846,
2.725833416,274.7573853,
2.7275002,275.5175476,
2.729166746,274.3483887,
2.73083353,275.4361877,
2.732499838,276.7843323,
2.734166622,274.8945313,
2.735833406,274.4625244,
2.737499952,275.3379822,
2.739166737,275.56073,
2.740833282,274.3835144,
2.742500067,276.9696655,
2.744166851,274.3273315,
2.745833397,274.5541687,
2.747500181,273.9980469,
2.749166727,275.3804321,
2.750833273,275.555481,
2.752500057,275.0744324,
2.754166603,275.5397339,
2.755833387,274.2170715,
2.757499933,275.3448486,
2.759166718,275.7128601,
2.760833502,274.0063171,
2.762500048,272.6684265,
2.764166832,274.3565063,
2.765833378,275.4104309,
2.767500162,275.3200989,
2.769166708,274.1330566,
2.770833254,273.713501,
2.772500038,273.3806763,
2.774166584,274.5400696,
2.775833368,274.9120789,
2.777500153,274.196106,
2.779166698,274.3686523,
2.780833483,273.8077698,
2.782500029,275.4364929,
2.784166813,275.1089783,
2.785833597,273.2803345,
2.787499905,273.6555786,
2.789166689,274.4697571,
2.790833235,276.2571716,
2.792500019,274.9214783,
2.794166803,274.2797546,
2.795833349,274.3394775,
2.797500134,275.6297607,
2.799166679,274.1620483,
2.800833464,276.2951965,
2.802500248,272.4397278,
2.804166555,274.822876,
2.80583334,273.1808777,
2.807499886,272.8825378,
2.80916667,274.9733276,
2.810833454,272.1333618,
2.8125,273.9245605,
2.814166784,273.232666,
2.81583333,274.7585144,
2.817500114,275.9468079,
2.819166899,274.0380249,
2.820833445,275.261261,
2.82249999,273.2773743,
2.824166536,271.2286987,
2.825833321,275.2386169,
2.827500105,273.9775085,
2.829166651,275.0135193,
2.830833435,275.5553284,
2.832499981,273.818573,
2.834166765,273.4795837,
2.835833549,274.5854187,
2.837500095,276.2051392,
2.83916688,273.256134,
2.840833187,274.4187317,
2.842499971,274.7090454,
2.844166756,275.0386963,
2.845833302,274.2355652,
2.847500086,273.1587219,
2.849166632,273.6208191,
2.850833416,273.414856,
2.8525002,274.9207764,
2.854166746,275.1462708,
2.85583353,272.7337036,
2.857499838,275.8549805,
2.859166622,272.5555115,
2.860833406,273.9730225,
2.862499952,273.4437561,
2.864166737,274.5151062,
2.865833282,273.5723877,
2.867500067,274.2243652,
2.869166851,274.6946106,
2.870833397,273.6824951,
2.872500181,275.3829041,
2.874166727,273.4722595,
2.875833273,272.6944885,
2.877500057,274.1518555,
2.879166603,273.5545349,
2.880833387,273.6387329,
2.882499933,273.7170715,
2.884166718,274.1136169,
2.885833502,274.2926331,
2.887500048,273.3404846,
2.889166832,274.6255798,
2.890833378,272.4188538,
2.892500162,272.9605713,
2.894166708,272.3157349,
2.895833254,273.932373,
2.897500038,274.4186401,
2.899166584,275.1509705,
2.900833368,273.8175964,
2.902500153,272.2062683,
2.904166698,273.4103088,
2.905833483,273.4038391,
2.907500029,272.8432617,
2.909166813,274.416748,
2.910833597,274.2497864,
2.912499905,273.8427734,
2.914166689,271.978302,
2.915833235,273.8096619,
2.917500019,273.168457,
2.919166803,272.8089905,
2.920833349,274.0996094,
2.922500134,274.0329285,
2.924166679,274.0495911,
2.925833464,272.315918,
2.927500248,273.3709412,
2.929166555,273.2814636,
2.93083334,273.6878357,
2.932499886,273.096344,
2.93416667,274.9091492,
2.935833454,273.8970947,
2.9375,273.6343384,
2.939166784,273.1361694,
2.94083333,272.3617249,
2.942500114,272.1158752,
2.944166899,272.6294861,
2.945833445,273.9772339,
2.94749999,273.9221191,
2.949166536,273.1269836,
2.950833321,274.3522644,
2.952500105,274.7924194,
2.954166651,274.8438416,
2.955833435,274.787384,
2.957499981,272.6604614,
2.959166765,272.8343201,
2.960833549,272.8121033,
2.962500095,274.3846741,
2.96416688,272.3442078,
2.965833187,273.9017944,
2.967499971,275.3077393,
2.969166756,274.8991089,
2.970833302,273.3822937,
2.972500086,274.9661865,
2.974166632,271.7338867,
2.975833416,272.3344116,
2.9775002,272.6164551,
2.979166746,273.644104,
2.98083353,273.3413391,
2.982499838,274.0710754,
2.984166622,271.2788696,
2.985833406,273.995636,
2.987499952,272.5610962,
2.989166737,272.8304138,
2.990833282,274.4428101,
2.992500067,274.2298889,
2.994166851,272.6941833,
2.995833397,272.783844,
2.997500181,273.9317932,
2.999166727,271.7264099,
3.000833273,272.8979492,
3.002500057,273.0174866,
3.004166603,272.114502,
3.005833387,272.3106079,
3.007499933,272.8684692,
3.009166718,274.111908,
3.010833502,274.254364,
3.012500048,273.6624146,
3.014166832,271.4690552,
3.015833378,274.3867493,
3.017500162,272.6071777,
3.019166708,274.9698486,
3.020833254,272.8805542,
3.022500038,273.1409302,
3.024166584,273.2785034,
3.025833368,272.3153992,
3.027500153,275.1620178,
3.029166698,271.6671448,
3.030833483,273.4674683,
3.032500029,273.0282898,
3.034166813,273.3338623,
3.035833597,272.3039551,
3.037499905,272.943634,
3.039166689,273.3040161,
3.040833235,273.024231,
3.042500019,274.6914673,
3.044166803,272.1585999,
3.045833349,273.443573,
3.047500134,272.9844055,
3.049166679,273.4533386,
3.050833464,273.0447388,
3.052500248,270.4421692,
3.054166555,274.3138733,
3.05583334,273.1262207,
3.057499886,274.0140076,
3.05916667,273.1281738,
3.060833454,273.2055359,
3.0625,272.6697388,
3.064166784,272.1227112,
3.06583333,272.8673096,
3.067500114,272.4389648,
3.069166899,272.9718628,
3.070833445,273.2554016,
3.07249999,271.9958801,
3.074166536,272.4831238,
3.075833321,274.8287659,
3.077500105,273.4084167,
3.079166651,272.5740967,
3.080833435,272.0973511,
3.082499981,272.2956543,
3.084166765,271.4939575,
3.085833549,272.9785156,
3.087500095,273.401825,
3.08916688,273.813385,
3.090833187,272.3752441,
3.092499971,273.7269592,
3.094166756,274.1054993,
3.095833302,274.8390808,
3.097500086,274.3450317,
3.099166632,272.3933105,
3.100833416,272.0058594,
3.1025002,273.2360535,
3.104166746,272.1126709,
3.10583353,271.5802307,
3.107499838,272.6315002,
3.109166622,272.6542358,
3.110833406,272.7442932,
3.112499952,271.972229,
3.114166737,273.2921448,
3.115833282,272.5358582,
3.117500067,271.8860474,
3.119166851,272.2558289,
3.120833397,271.0854492,
3.122500181,272.1164856,
3.124166727,273.3071899,
3.125833273,273.1133728,
3.127500057,272.0306396,
3.129166603,273.3040466,
3.130833387,272.7330933,
3.132499933,273.5383301,
3.134166718,272.6586914,
3.135833502,272.1594849,
3.137500048,271.7463684,
3.139166832,274.8164978,
3.140833378,273.1999207,
3.142500162,272.4864502,
3.144166708,272.1254272,
3.145833254,273.611969,
3.147500038,271.6795349,
3.149166584,271.348053,
3.150833368,274.7909241,
3.152500153,273.0231323,
3.154166698,272.4779053,
3.155833483,273.1541138,
3.157500029,273.3803101,
3.159166813,272.3829041,
3.160833597,273.5041809,
3.162499905,272.4407959,
3.164166689,273.317688,
3.165833235,273.0766296,
3.167500019,271.9185181,
3.169166803,272.291626,
3.170833349,272.6979065,
3.172500134,273.8250427,
3.174166679,271.775238,
3.175833464,271.8808899,
3.177500248,272.0725403,
3.179166555,271.9737854,
3.18083334,271.3269043,
3.182499886,272.8561401,
3.18416667,271.3022461,
3.185833454,271.673584,
3.1875,271.8673096,
3.189166784,270.1834717,
3.19083333,272.3246765,
3.192500114,272.796936,
3.194166899,272.0965881,
3.195833445,272.8485718,
3.19749999,272.3850098,
3.199166536,271.7315674,
3.200833321,274.163269,
3.202500105,273.9280701,
3.204166651,271.1022644,
3.205833435,271.1908875,
3.207499981,272.8786011,
3.209166765,273.2281189,
3.210833549,272.8681946,
3.212500095,272.5224304,
3.21416688,271.6210022,
3.215833187,270.2535095,
3.217499971,272.3274841,
3.219166756,272.7580872,
3.220833302,272.7310181,
3.222500086,270.5415344,
3.224166632,272.5073547,
3.225833416,271.3158264,
3.2275002,272.3104858,
3.229166746,272.8276367,
3.23083353,272.7699585,
3.232499838,271.473175,
3.234166622,272.4096375,
3.235833406,273.0386047,
3.237499952,272.2301636,
3.239166737,271.4011536,
3.240833282,272.2130127,
3.242500067,271.1213379,
3.244166851,272.2288208,
3.245833397,271.3962402,
3.247500181,272.0274658,
3.249166727,271.9640503,
3.250833273,271.2679138,
3.252500057,272.0554199,
3.254166603,272.1737976,
3.255833387,271.64151,
3.257499933,273.1752319,
3.259166718,272.711792,
3.260833502,272.1438293,
3.262500048,272.0063477,
3.264166832,271.993927,
3.265833378,272.585144,
3.267500162,272.09198,
3.269166708,272.4961853,
3.270833254,272.6247253,
3.272500038,274.1246643,
3.274166584,271.553894,
3.275833368,272.2176819,
3.277500153,272.0058289,
3.279166698,271.582489,
3.280833483,271.6976929,
3.282500029,271.2157288,
3.284166813,272.2535095,
3.285833597,272.0396729,
3.287499905,273.1785889,
3.289166689,271.1693726,
3.290833235,272.2561951,
3.292500019,270.5343323,
3.294166803,271.4526672,
3.295833349,271.2045898,
3.297500134,271.7865906,
3.299166679,270.7157593,
3.300833464,270.7174683,
3.302500248,272.1945801,
3.304166555,271.4598694,
3.30583334,273.1347046,
3.307499886,270.4671021,
3.30916667,271.3826599,
3.310833454,273.4627075,
3.3125,273.9208374,
3.314166784,272.9434814,
3.31583333,270.9597473,
3.317500114,269.8696594,
3.319166899,272.3511353,
3.320833445,271.5141907,
3.32249999,272.3899231,
3.324166536,271.809906,
3.325833321,271.5959473,
3.327500105,271.2899475,
3.329166651,272.0040588,
3.330833435,272.4284668,
3.332499981,272.5728149,
3.334166765,270.4805908,
3.335833549,273.0275269,
3.337500095,273.9641724,
3.33916688,270.0106201,
3.340833187,271.0574646,
3.342499971,272.3086548,
3.344166756,270.4981689,
3.345833302,271.4496765,
3.347500086,271.1052856,
3.349166632,270.1408081,
3.350833416,271.3725281,
3.3525002,271.346405,
3.354166746,272.5317993,
3.35583353,271.8175659,
3.357499838,273.1806946,
3.359166622,272.7085571,
3.360833406,271.9280701,
3.362499952,270.5379639,
3.364166737,271.4615173,
3.365833282,271.5289917,
3.367500067,272.1825562,
3.369166851,271.7967224,
3.370833397,272.134491,
3.372500181,271.7783813,
3.374166727,272.1420898,
3.375833273,273.1642761,
3.377500057,270.8035278,
3.379166603,271.3441772,
3.380833387,269.6454468,
3.382499933,270.9867249,
3.384166718,273.4153748,
3.385833502,272.7783203,
3.387500048,271.9118958,
3.389166832,270.4186401,
3.390833378,271.2044983,
3.392500162,271.3392639,
3.394166708,271.4087524,
3.395833254,270.8000183,
3.397500038,269.8703308,
3.399166584,270.4750366,
3.400833368,271.0082703,
3.402500153,271.0531921,
3.404166698,270.0222778,
3.405833483,269.9010315,
3.407500029,272.4910583,
3.409166813,270.8742676,
3.410833597,272.2988281,
3.412499905,272.5670166,
3.414166689,271.5238037,
3.415833235,271.4770813,
3.417500019,271.9079895,
3.419166803,270.1193848,
3.420833349,270.5739746,
3.422500134,270.4502258,
3.424166679,271.3771667,
3.425833464,271.8328857,
3.427500248,270.528595,
3.429166555,270.6966858,
3.43083334,272.113739,
3.432499886,271.6170959,
3.43416667,271.7350769,
3.435833454,271.4078369,
3.4375,271.2172852,
3.439166784,271.679718,
3.44083333,269.9158325,
3.442500114,271.5437927,
3.444166899,270.6626587,
3.445833445,272.0812073,
3.44749999,271.9570923,
3.449166536,270.1470947,
3.450833321,269.4812927,
3.452500105,271.7718201,
3.454166651,271.796814,
3.455833435,270.9178467,
3.457499981,272.9004211,
3.459166765,271.9706421,
3.460833549,270.6740723,
3.462500095,271.9457703,
3.46416688,270.0629272,
3.465833187,270.043396,
3.467499971,271.8433228,
3.469166756,271.3425903,
3.470833302,271.0328674,
3.472500086,271.399292,
3.474166632,270.2401123,
3.475833416,271.2263794,
3.4775002,270.3753662,
3.479166746,270.2180176,
3.48083353,270.7601013,
3.482499838,270.1211548,
3.484166622,271.7941895,
3.485833406,271.2279663,
3.487499952,271.3269958,
3.489166737,270.4998169,
3.490833282,270.3443909,
3.492500067,270.4156189,
3.494166851,271.2733459,
3.495833397,269.96698,
3.497500181,272.2691345,
3.499166727,271.7711182,
3.500833273,271.7414551,
3.502500057,270.7007751,
3.504166603,270.3059692,
3.505833387,270.5705261,
3.507499933,269.6625977,
3.509166718,271.3756714,
3.510833502,271.8028564,
3.512500048,271.0191956,
3.514166832,270.2372742,
3.515833378,271.4886475,
3.517500162,271.1672058,
3.519166708,271.6730957,
3.520833254,269.7460632,
3.522500038,270.1921082,
3.524166584,271.5624695,
3.525833368,270.7431946,
3.527500153,268.9482117,
3.529166698,270.0951538,
3.530833483,270.9199524,
3.532500029,271.036438,
3.534166813,270.1931458,
3.535833597,271.5610352,
3.537499905,271.0006409,
3.539166689,271.522644,
3.540833235,269.9347229,
3.542500019,270.205719,
3.544166803,271.4877014,
3.545833349,268.5773315,
3.547500134,271.499939,
3.549166679,271.7966919,
3.550833464,269.3589172,
3.552500248,271.0516052,
3.554166555,271.3643799,
3.55583334,271.0747681,
3.557499886,271.6421509,
3.55916667,270.4732666,
3.560833454,271.0675964,
3.5625,268.2939758,
3.564166784,270.436676,
3.56583333,269.7919006,
3.567500114,270.0048828,
3.569166899,270.135376,
3.570833445,272.2124023,
3.57249999,272.1904602,
3.574166536,271.5365295,
3.575833321,271.2978821,
3.577500105,270.2885437,
3.579166651,269.8753357,
3.580833435,272.3509216,
3.582499981,269.1861572,
3.584166765,270.9497986,
3.585833549,271.8310242,
3.587500095,269.4164124,
3.58916688,270.8233337,
3.590833187,271.8258057,
3.592499971,270.756012,
3.594166756,270.0274353,
3.595833302,270.9676208,
3.597500086,270.6656494,
3.599166632,269.6102905,
3.600833416,270.2872925,
3.6025002,269.6698303,
3.604166746,270.454834,
3.60583353,270.0606689,
3.607499838,271.1642761,
3.609166622,270.0900269,
3.610833406,269.6484985,
3.612499952,270.2969666,
3.614166737,270.4749146,
3.615833282,269.4925537,
3.617500067,271.0899658,
3.619166851,270.4058838,
3.620833397,269.2401428,
3.622500181,270.624054,
3.624166727,270.4848633,
3.625833273,268.9333191,
3.627500057,270.6051331,
3.629166603,269.750885,
3.630833387,269.9048157,
3.632499933,270.6019287,
3.634166718,269.6582031,
3.635833502,269.1663208,
3.637500048,269.9238892,
3.639166832,270.3812866,
3.640833378,270.1261292,
3.642500162,270.9605103,
3.644166708,270.4701538,
3.645833254,269.8147888,
3.647500038,269.9682617,
3.649166584,271.006958,
3.650833368,270.8787537,
3.652500153,269.7414246,
3.654166698,272.153656,
3.655833483,269.8557739,
3.657500029,271.5945129,
3.659166813,271.0097046,
3.660833597,272.0099792,
3.662499905,269.9491272,
3.664166689,269.2360535,
3.665833235,272.725647,
3.667500019,269.151825,
3.669166803,270.5183716,
3.670833349,269.693634,
3.672500134,269.1986694,
3.674166679,270.2473755,
3.675833464,269.2594299,
3.677500248,270.3868713,
3.679166555,271.7602844,
3.68083334,269.6546326,
3.682499886,270.1207275,
3.68416667,270.4530334,
3.685833454,270.7753906,
3.6875,268.8025513,
3.689166784,270.2139893,
3.69083333,269.9629517,
3.692500114,272.1200562,
3.694166899,269.4943542,
3.695833445,269.0137329,
3.69749999,270.7287598,
3.699166536,270.7657471,
3.700833321,271.6313782,
3.702500105,270.5609741,
3.704166651,271.5024109,
3.705833435,268.5444336,
3.707499981,270.1836853,
3.709166765,271.8668823,
3.710833549,269.4899597,
3.712500095,269.8124084,
3.71416688,270.236908,
3.715833187,270.6104736,
3.717499971,270.289978,
3.719166756,269.7091675,
3.720833302,269.9039612,
3.722500086,269.9415283,
3.724166632,270.348175,
3.725833416,270.1031189,
3.7275002,270.3563843,
3.729166746,269.0641479,
3.73083353,271.146637,
3.732499838,269.1755066,
3.734166622,270.9115295,
3.735833406,271.4795532,
3.737499952,269.2416077,
3.739166737,269.969574,
3.740833282,270.9445496,
3.742500067,268.8360901,
3.744166851,271.0168457,
3.745833397,271.3909302,
3.747500181,270.2774963,
3.749166727,270.1706543,
3.750833273,269.5871277,
3.752500057,267.2579956,
3.754166603,270.9889221,
3.755833387,270.081604,
3.757499933,271.6040039,
3.759166718,270.1540222,
3.760833502,268.2602844,
3.762500048,269.550415,
3.764166832,268.9583435,
3.765833378,270.6246033,
3.767500162,267.3269958,
3.769166708,269.7678833,
3.770833254,267.7122803,
3.772500038,270.5638733,
3.774166584,269.3814392,
3.775833368,268.7988281,
3.777500153,269.098999,
3.779166698,270.5503235,
3.780833483,269.9896851,
3.782500029,269.8079834,
3.784166813,269.6412048,
3.785833597,268.7489014,
3.787499905,270.7207947,
3.789166689,271.1898193,
3.790833235,268.2719421,
3.792500019,269.2575989,
3.794166803,268.0558167,
3.795833349,268.6315002,
3.797500134,270.2410278,
3.799166679,269.3494568,
3.800833464,268.2323608,
3.802500248,269.444458,
3.804166555,269.0987244,
3.80583334,269.4726868,
3.807499886,268.903595,
3.80916667,269.5541992,
3.810833454,269.5204468,
3.8125,271.0435181,
3.814166784,268.9560242,
3.81583333,269.2280579,
3.817500114,269.3647461,
3.819166899,270.9154053,
3.820833445,269.7221069,
3.82249999,268.746521,
3.824166536,271.0955811,
3.825833321,269.4285278,
3.827500105,269.6715393,
3.829166651,270.3365479,
3.830833435,268.7306824,
3.832499981,269.8052673,
3.834166765,271.0020752,
3.835833549,269.847229,
3.837500095,270.0814209,
3.83916688,269.8178101,
3.840833187,270.3108826,
3.842499971,269.7006531,
3.844166756,270.254303,
3.845833302,269.3358765,
3.847500086,270.534668,
3.849166632,268.9540405,
3.850833416,269.8384705,
3.8525002,269.4232788,
3.854166746,268.1765442,
3.85583353,270.4745178,
3.857499838,271.1220398,
3.859166622,270.0235596,
3.860833406,269.3661499,
3.862499952,269.1101379,
3.864166737,268.8956299,
3.865833282,268.479187,
3.867500067,267.6396179,
3.869166851,269.7762146,
3.870833397,271.2271729,
3.872500181,270.6395569,
3.874166727,269.7366638,
3.875833273,269.9377747,
3.877500057,269.9649963,
3.879166603,269.436676,
3.880833387,270.0812683,
3.882499933,269.6470947,
3.884166718,267.5440369,
3.885833502,269.4164429,
3.887500048,269.6668091,
3.889166832,269.0466003,
3.890833378,269.7326965,
3.892500162,269.2943726,
3.894166708,269.0450134,
3.895833254,269.8210449,
3.897500038,269.8226013,
3.899166584,269.3538513,
3.900833368,268.9453735,
3.902500153,270.5644836,
3.904166698,270.3971252,
3.905833483,269.1130371,
3.907500029,269.3180847,
3.909166813,270.5275269,
3.910833597,268.84552,
3.912499905,269.0751648,
3.914166689,269.9954529,
3.915833235,270.7528076,
3.917500019,270.2168274,
3.919166803,269.6893616,
3.920833349,268.233429,
3.922500134,267.773468,
3.924166679,267.747345,
3.925833464,269.6127014,
3.927500248,268.8901062,
3.929166555,270.7147522,
3.93083334,270.3774414,
3.932499886,268.5080872,
3.93416667,268.2735596,
3.935833454,269.6034546,
3.9375,268.0595703,
3.939166784,269.815918,
3.94083333,268.580719,
3.942500114,269.0435486,
3.944166899,271.5355225,
3.945833445,268.2449646,
3.94749999,268.7045593,
3.949166536,268.8125,
3.950833321,267.8929749,
3.952500105,268.1643066,
3.954166651,268.5244446,
3.955833435,269.8996277,
3.957499981,268.9328918,
3.959166765,269.4433289,
3.960833549,270.2033081,
3.962500095,269.3200989,
3.96416688,267.9566956,
3.965833187,270.2480774,
3.967499971,269.8474121,
3.969166756,268.727356,
3.970833302,270.453186,
3.972500086,269.5990295,
3.974166632,269.3520203,
3.975833416,270.0014038,
3.9775002,268.085022,
3.979166746,268.6028137,
3.98083353,269.0899353,
3.982499838,268.3353271,
3.984166622,269.4647827,
3.985833406,269.1057434,
3.987499952,268.0959167,
3.989166737,271.1956787,
3.990833282,270.665802,
3.992500067,268.1131592,
3.994166851,269.2932739,
3.995833397,271.1820374,
3.997500181,268.4739685,
3.999166727,268.5324707,
4.000833511,270.0918884,
4.002500057,268.4427185,
4.004166603,268.1524658,
4.005833626,270.2655334,
4.007500172,268.9352722,
4.009166718,269.6935425,
4.010833263,270.3132019,
4.012499809,268.5229492,
4.014166832,266.967804,
4.015833378,269.9810791,
4.017499924,268.8917542,
4.019166946,268.6842651,
4.020833492,269.1265259,
4.022500038,268.884613,
4.024166584,268.9741211,
4.025833607,267.5283203,
4.027500153,269.3389893,
4.029166698,270.1104431,
4.030833244,270.8781128,
4.03249979,268.1196289,
4.034166813,269.3634338,
4.035833359,270.5958557,
4.037499905,268.3019409,
4.039166927,270.2134399,
4.040833473,268.118927,
4.042500019,269.7618408,
4.044167042,270.1285706,
4.045833111,269.7132874,
4.047500134,267.786499,
4.049166679,268.461731,
4.050833225,269.595459,
4.052500248,270.1663818,
4.054166794,269.1762085,
4.05583334,270.6117554,
4.057499886,268.2121277,
4.059166908,268.1708984,
4.060833454,268.9580994,
4.0625,267.5810242,
4.064166546,267.8917236,
4.065833092,267.6718445,
4.067500114,268.6731567,
4.06916666,268.7223511,
4.070833206,267.962738,
4.072500229,268.9000244,
4.074166775,266.8529358,
4.075833321,268.6139526,
4.077500343,269.8717041,
4.079166889,269.3378601,
4.080833435,270.8406067,
4.082499981,269.3153992,
4.084166527,268.0036316,
4.085833549,268.9083252,
4.087500095,268.48349,
4.089166641,268.50354,
4.090833187,269.7795105,
4.09250021,269.4691162,
4.094166756,268.6920166,
4.095833302,268.8499756,
4.097500324,268.3916321,
4.099166393,269.8248901,
4.100833416,267.7366638,
4.102499962,268.1044922,
4.104166508,268.0253601,
4.10583353,270.4197083,
4.107500076,269.3790894,
4.109166622,269.6941833,
4.110833645,266.8688049,
4.112500191,268.289093,
4.114166737,268.6040344,
4.115833282,267.1496277,
4.117499828,268.9414978,
4.119166851,268.6066895,
4.120833397,268.8340454,
4.122499943,268.5250549,
4.124166489,267.9764709,
4.125833511,268.0446472,
4.127500057,267.811554,
4.129166603,269.0032959,
4.130833626,266.3612976,
4.132500172,269.08255,
4.134166718,268.1889954,
4.135833263,268.3125,
4.137499809,267.2313843,
4.139166832,268.4723816,
4.140833378,268.6983643,
4.142499924,267.9260254,
4.144166946,269.8773804,
4.145833492,267.0052795,
4.147500038,268.0295105,
4.149166584,269.4217224,
4.150833607,268.7027283,
4.152500153,269.361908,
4.154166698,269.3938599,
4.155833244,269.1587524,
4.15749979,267.8783264,
4.159166813,269.97995,
4.160833359,269.2648926,
4.162499905,268.7106323,
4.164166927,270.1819458,
4.165833473,268.7857971,
4.167500019,269.1565552,
4.169167042,269.9689331,
4.170833111,270.3348999,
4.172500134,270.5311279,
4.174166679,268.3246765,
4.175833225,269.2046814,
4.177500248,268.258728,
4.179166794,268.3046265,
4.18083334,266.6506958,
4.182499886,268.1439209,
4.184166908,270.0895386,
4.185833454,269.315979,
4.1875,268.4862366,
4.189166546,268.9459534,
4.190833092,269.0282288,
4.192500114,267.4155884,
4.19416666,267.9505615,
4.195833206,269.2068481,
4.197500229,268.7872314,
4.199166775,268.8733826,
4.200833321,267.6114502,

