11,,
Time (min),Intensity (a.u.),
0.004166666884,133.3187408,
0.01250000019,133.5644684,
0.02083333395,134.157486,
0.02916666679,133.4562531,
0.03750000149,133.5123444,
0.04583333433,134.5035706,
0.05416666716,135.2981873,
0.0625,135.8854523,
0.07083333284,136.3857574,
0.07916666567,135.8548126,
0.08749999851,134.2788544,
0.09583333135,134.1086121,
0.1041666642,134.2302399,
0.112499997,134.7453918,
0.1208333299,134.7264557,
0.1291666627,134.2220306,
0.137500003,135.8958282,
0.1458333284,135.1814575,
0.1541666687,135.4475555,
0.162499994,134.4324188,
0.1708333343,134.4288483,
0.1791666597,135.2455139,
0.1875,134.6223755,
0.1958333403,134.7342072,
0.2041666657,135.1640472,
0.212500006,134.7003479,
0.2208333313,135.3540497,
0.2291666716,135.6220551,
0.237499997,134.5827026,
0.2458333373,134.9715576,
0.2541666627,134.4365234,
0.2624999881,135.0752258,
0.2708333433,135.8742218,
0.2791666687,136.2536469,
0.287499994,135.2267456,
0.2958333194,135.7239685,
0.3041666746,135.9716339,
0.3125,136.7413483,
0.3208333254,135.5223236,
0.3291666806,136.5670166,
0.337500006,135.0792847,
0.3458333313,135.4254456,
0.3541666567,135.2913361,
0.3625000119,135.5388184,
0.3708333373,135.7961578,
0.3791666627,136.0352325,
0.3874999881,136.5897675,
0.3958333433,135.6116486,
0.4041666687,136.3295288,
0.412499994,135.7797089,
0.4208333194,136.6493683,
0.4291666746,136.772049,
0.4375,136.2994995,
0.4458333254,135.89711,
0.4541666806,136.2794495,
0.462500006,136.7154236,
0.4708333313,136.7239227,
0.4791666567,136.6443634,
0.4875000119,136.2640533,
0.4958333373,137.789917,
0.5041666627,136.6378784,
0.5124999881,137.1222687,
0.5208333135,137.3508453,
0.5291666389,136.5680084,
0.5375000238,137.1072388,
0.5458333492,136.9989166,
0.5541666746,137.5537567,
0.5625,136.932785,
0.5708333254,138.1417694,
0.5791666508,137.1861877,
0.5874999762,137.6723022,
0.5958333611,137.2330322,
0.6041666865,136.8513336,
0.6125000119,136.652359,
0.6208333373,137.1888275,
0.6291666627,136.8239136,
0.6374999881,137.1288605,
0.6458333135,137.1547852,
0.6541666389,137.1645813,
0.6625000238,137.0552368,
0.6708333492,137.2224731,
0.6791666746,137.1660004,
0.6875,136.6313324,
0.6958333254,137.3106079,
0.7041666508,137.1349487,
0.7124999762,137.3884125,
0.7208333611,137.7051544,
0.7291666865,137.2194366,
0.7375000119,137.9510193,
0.7458333373,137.3014374,
0.7541666627,137.4631348,
0.7624999881,138.1151123,
0.7708333135,137.6925354,
0.7791666389,137.4102478,
0.7875000238,137.4675598,
0.7958333492,137.0658417,
0.8041666746,137.8247528,
0.8125,137.7010345,
0.8208333254,137.3525543,
0.8291666508,137.5521851,
0.8374999762,138.0198059,
0.8458333611,137.9765015,
0.8541666865,137.7875671,
0.8625000119,136.8959045,
0.8708333373,137.6317291,
0.8791666627,138.0413513,
0.8874999881,138.0057526,
0.8958333135,137.4113159,
0.9041666389,137.0941315,
0.9125000238,137.9344635,
0.9208333492,137.9821625,
0.9291666746,136.916626,
0.9375,137.2350006,
0.9458333254,137.392746,
0.9541666508,137.9960938,
0.9624999762,137.4669495,
0.9708333611,137.3138428,
0.9791666865,137.6499329,
0.9875000119,138.1164246,
0.9958333373,137.764328,
1.004166722,138.2543945,
1.012500048,137.258255,
1.020833373,137.6281738,
1.029166698,137.5410767,
1.037500024,137.5883026,
1.045833349,137.6564484,
1.054166675,137.5270844,
1.0625,137.5397186,
1.070833325,137.2702637,
1.079166651,137.4930267,
1.087499976,137.9471588,
1.095833302,137.6161652,
1.104166627,138.1016693,
1.112499952,137.9839478,
1.120833278,137.8464508,
1.129166722,137.7791138,
1.137500048,138.2443085,
1.145833373,137.7445984,
1.154166698,137.6966095,
1.162500024,137.7251892,
1.170833349,138.2494659,
1.179166675,138.0231934,
1.1875,137.7524261,
1.195833325,137.5397797,
1.204166651,137.8018188,
1.212499976,137.4169006,
1.220833302,137.3964996,
1.229166627,137.6822815,
1.237499952,139.1271362,
1.245833278,138.2406464,
1.254166722,137.9913788,
1.262500048,138.1408691,
1.270833373,138.2478638,
1.279166698,137.9234161,
1.287500024,138.0634613,
1.295833349,138.2017059,
1.304166675,138.7782135,
1.3125,137.9698639,
1.320833325,138.4743195,
1.329166651,137.9108734,
1.337499976,137.4914551,
1.345833302,138.529129,
1.354166627,138.2807312,
1.362499952,137.9924927,
1.370833278,138.3005524,
1.379166722,137.6930695,
1.387500048,137.5836639,
1.395833373,137.7008972,
1.404166698,137.8043213,
1.412500024,137.6832123,
1.420833349,137.9000549,
1.429166675,137.7505035,
1.4375,137.8179626,
1.445833325,137.7618866,
1.454166651,137.4873047,
1.462499976,137.526413,
1.470833302,137.3044586,
1.479166627,138.1520996,
1.487499952,137.5285645,
1.495833278,138.2862854,
1.504166722,138.4121094,
1.512500048,137.9394226,
1.520833373,137.7728729,
1.529166698,137.6346283,
1.537500024,138.5309296,
1.545833349,138.0235596,
1.554166675,138.7798462,
1.5625,138.4495392,
1.570833325,137.8819122,
1.579166651,137.363678,
1.587499976,138.199173,
1.595833302,137.7632446,
1.604166627,138.4575958,
1.612499952,138.4267273,
1.620833278,138.1075287,
1.629166722,137.8091888,
1.637500048,137.7169342,
1.645833373,138.008255,
1.654166698,137.881958,
1.662500024,137.7026672,
1.670833349,137.592514,
1.679166675,138.0004272,
1.6875,137.9645386,
1.695833325,137.4832306,
1.704166651,137.4886322,
1.712499976,138.0043945,
1.720833302,137.8691406,
1.729166627,137.6196594,
1.737499952,138.1106415,
1.745833278,138.2660522,
1.754166722,138.5262299,
1.762500048,138.1985931,
1.770833373,138.0647278,
1.779166698,138.2988586,
1.787500024,138.3259888,
1.795833349,138.4205933,
1.804166675,137.9624939,
1.8125,138.690567,
1.820833325,138.5016632,
1.829166651,138.672348,
1.837499976,138.5132141,
1.845833302,138.2478943,
1.854166627,138.2068024,
1.862499952,138.0162354,
1.870833278,137.530777,
1.879166722,137.6792908,
1.887500048,137.6630402,
1.895833373,137.6438751,
1.904166698,138.3041382,
1.912500024,137.3559418,
1.920833349,138.0313873,
1.929166675,138.3600464,
1.9375,138.1758728,
1.945833325,138.1391296,
1.954166651,138.1267548,
1.962499976,138.1180573,
1.970833302,137.8804321,
1.979166627,137.8869019,
1.987499952,138.2956696,
1.995833278,138.0380707,
2.004166603,138.1588898,
2.012500048,138.5218811,
2.020833254,137.8671722,
2.029166698,137.8146362,
2.037499905,137.8431549,
2.045833349,138.902359,
2.054166555,138.5071259,
2.0625,138.0755157,
2.070833445,137.7200317,
2.079166651,138.3234558,
2.087500095,137.9291077,
2.095833302,138.2928314,
2.104166746,138.2370758,
2.112499952,138.66539,
2.120833397,138.5127869,
2.129166603,138.4342499,
2.137500048,138.5677185,
2.145833254,138.3300323,
2.154166698,138.2636108,
2.162499905,138.3256683,
2.170833349,138.728714,
2.179166555,138.4225464,
2.1875,138.1879883,
2.195833445,137.905899,
2.204166651,138.2635345,
2.212500095,138.5623627,
2.220833302,138.3807068,
2.229166746,137.9490204,
2.237499952,137.9185944,
2.245833397,138.4660339,
2.254166603,138.6639709,
2.262500048,138.2682343,
2.270833254,138.3158264,
2.279166698,138.0702362,
2.287499905,138.4950562,
2.295833349,138.9778595,
2.304166555,138.5355682,
2.3125,138.3675385,
2.320833445,138.8931732,
2.329166651,138.8213654,
2.337500095,138.158844,
2.345833302,138.6882477,
2.354166746,138.0090637,
2.362499952,138.5847626,
2.370833397,138.1449738,
2.379166603,138.0083313,
2.387500048,138.5262451,
2.395833254,137.9602814,
2.404166698,138.6682281,
2.412499905,138.236145,
2.420833349,138.3605042,
2.429166555,138.8538208,
2.4375,138.7731171,
2.445833445,138.8221283,
2.454166651,138.5535126,
2.462500095,138.665741,
2.470833302,138.5084229,
2.479166746,138.33638,
2.487499952,138.3348083,
2.495833397,138.3250732,
2.504166603,138.2007294,
2.512500048,138.6241302,
2.520833254,138.1876984,
2.529166698,137.9502258,
2.537499905,138.6901703,
2.545833349,138.5392609,
2.554166555,139.598587,
2.5625,138.106781,
2.570833445,138.5420074,
2.579166651,138.7626801,
2.587500095,138.5368347,
2.595833302,138.7668762,
2.604166746,138.8916626,
2.612499952,138.4767914,
2.620833397,138.6239471,
2.629166603,138.8443756,
2.637500048,138.5869446,
2.645833254,138.864624,
2.654166698,138.537674,
2.662499905,138.8113861,
2.670833349,138.5762177,
2.679166555,139.0614777,
2.6875,138.2823334,
2.695833445,138.7246094,
2.704166651,138.6314392,
2.712500095,138.5121307,
2.720833302,138.8571625,
2.729166746,138.9228516,
2.737499952,138.7930298,
2.745833397,138.4776154,
2.754166603,138.6855774,
2.762500048,138.4438934,
2.770833254,138.810257,
2.779166698,138.769516,
2.787499905,138.5949707,
2.795833349,138.7350616,
2.804166555,138.6925507,
2.8125,138.450531,
2.820833445,138.7028961,
2.829166651,138.792572,
2.837500095,138.5953064,
2.845833302,138.486618,
2.854166746,138.9715729,
2.862499952,138.5365448,
2.870833397,138.5755157,
2.879166603,138.9220581,
2.887500048,139.0958405,
2.895833254,138.7990723,
2.904166698,138.7406006,
2.912499905,139.040329,
2.920833349,138.8059692,
2.929166555,138.7757721,
2.9375,138.5521393,
2.945833445,138.8825684,
2.954166651,138.7212219,
2.962500095,138.9489899,
2.970833302,140.6105499,
2.979166746,129.2350616,
2.987499952,121.710083,
2.995833397,133.6756592,
3.004166603,133.0057526,
3.012500048,129.9832916,
3.020833254,131.2915039,
3.029166698,130.2675018,
3.037499905,129.7400818,
3.045833349,140.7310486,
3.054166555,139.9367676,
3.0625,139.7664185,
3.070833445,138.8835602,
3.079166651,138.2863617,
3.087500095,137.877121,
3.095833302,137.3731537,
3.104166746,137.0344238,
3.112499952,136.2380066,
3.120833397,135.827774,
3.129166603,135.6687622,
3.137500048,135.080658,
3.145833254,134.5676575,
3.154166698,134.8894196,
3.162499905,133.7507935,
3.170833349,133.3648224,
3.179166555,132.7206879,
3.1875,132.353363,
3.195833445,132.1038361,
3.204166651,132.1562653,
3.212500095,131.7938538,
3.220833302,131.2566528,
3.229166746,130.8276672,
3.237499952,130.1404877,
3.245833397,130.2880707,
3.254166603,129.7552948,
3.262500048,129.5192108,
3.270833254,129.4669189,
3.279166698,128.579422,
3.287499905,128.0390625,
3.295833349,128.1022034,
3.304166555,127.8593826,
3.3125,127.528923,
3.320833445,127.3604965,
3.329166651,126.6795273,
3.337500095,126.3128967,
3.345833302,126.6200409,
3.354166746,126.0434723,
3.362499952,125.7378616,
3.370833397,125.6773911,
3.379166603,125.6405869,
3.387500048,125.029953,
3.395833254,124.7219467,
3.404166698,124.8853226,
3.412499905,123.9615402,
3.420833349,123.7695694,
3.429166555,123.4060593,
3.4375,123.8668747,
3.445833445,123.3095856,
3.454166651,123.1041946,
3.462500095,122.8592377,
3.470833302,123.1264725,
3.479166746,122.8478088,
3.487499952,122.6479263,
3.495833397,121.8398895,
3.504166603,121.9241028,
3.512500048,122.052887,
3.520833254,121.8577957,
3.529166698,121.2960815,
3.537499905,121.0785522,
3.545833349,121.1984558,
3.554166555,120.6182556,
3.5625,120.5093231,
3.570833445,119.9695511,
3.579166651,120.0925522,
3.587500095,119.9755936,
3.595833302,119.583519,
3.604166746,118.9125977,
3.612499952,119.3095856,
3.620833397,119.1114044,
3.629166603,119.2387085,
3.637500048,118.8452301,
3.645833254,118.8278656,
3.654166698,118.3167953,
3.662499905,118.522644,
3.670833349,118.121994,
3.679166555,118.0129013,
3.6875,117.1995621,
3.695833445,117.7848358,
3.704166651,117.5241547,
3.712500095,116.9784012,
3.720833302,117.4181747,
3.729166746,116.8927231,
3.737499952,116.9851303,
3.745833397,116.8481674,
3.754166603,116.5642166,
3.762500048,116.5750198,
3.770833254,116.5919342,
3.779166698,116.3382645,
3.787499905,116.0307388,
3.795833349,116.3511734,
3.804166555,115.4481125,
3.8125,114.974205,
3.820833445,115.4512558,
3.829166651,115.019104,
3.837500095,115.3295517,
3.845833302,115.0241089,
3.854166746,114.555397,
3.862499952,114.8531189,
3.870833397,114.3947601,
3.879166603,114.5355988,
3.887500048,114.3976974,
3.895833254,114.2856293,
3.904166698,114.2309265,
3.912499905,114.068573,
3.920833349,114.0176468,
3.929166555,113.9644089,
3.9375,113.7389603,
3.945833445,114.0231171,
3.954166651,113.5233841,
3.962500095,113.6717529,
3.970833302,113.4310837,
3.979166746,113.2628479,
3.987499952,112.966217,
3.995833397,113.0083771,
4.004166603,113.0528336,
4.012499809,112.9149628,
4.020833492,112.5733185,
4.029166698,112.4698563,
4.037499905,112.4838181,
4.045833111,112.7045898,
4.054166794,112.3640518,
4.0625,112.1893921,
4.070833206,112.0157318,
4.079166889,112.0850372,
4.087500095,111.8323822,
4.095833302,111.7720795,
4.104166508,111.6520996,
4.112500191,111.5179138,
4.120833397,111.4978943,
4.129166603,111.4574432,
4.137499809,111.3834152,
4.145833492,111.0443268,
4.154166698,111.217865,
4.162499905,110.9341049,
4.170833111,110.7656479,
4.179166794,110.5078812,
4.1875,110.7038116,
4.195833206,110.508812,
4.204166889,110.480751,
4.212500095,110.3806381,
4.220833302,110.248642,
4.229166508,110.1991425,
4.237500191,110.3141556,
4.245833397,110.2514572,
4.254166603,109.9826736,
4.262499809,110.082695,
4.270833492,109.7707596,
4.279166698,109.8559265,
4.287499905,109.6943512,
4.295833111,109.6464005,
4.304166794,109.5905685,
4.3125,109.7081299,
4.320833206,109.4026794,
4.329166889,109.2401428,
4.337500095,109.5310287,
4.345833302,109.6710205,
4.354166508,109.0992813,
4.362500191,109.1077957,
4.370833397,109.464035,
4.379166603,108.8763123,
4.387499809,109.2776489,
4.395833492,108.617424,
4.404166698,108.9701157,
4.412499905,108.6732864,
4.420833111,108.5283051,
4.429166794,108.2815018,
4.4375,108.7293777,
4.445833206,108.344223,
4.454166889,108.239006,
4.462500095,107.9611511,
4.470833302,107.93647,
4.479166508,108.4377747,
4.487500191,107.9517212,
4.495833397,107.5874329,
4.504166603,107.9099274,
4.512499809,107.9613037,
4.520833492,108.0282974,
4.529166698,107.9847412,
4.537499905,107.8343353,
4.545833111,107.5754929,
4.554166794,107.6789322,
4.5625,107.3969269,
4.570833206,107.7829132,
4.579166889,107.9180527,
4.587500095,107.5630875,
4.595833302,106.7392807,
4.604166508,107.0291824,
4.612500191,107.3696823,
4.620833397,107.0738602,
4.629166603,106.9324493,
4.637499809,107.1819305,
4.645833492,106.9308395,
4.654166698,106.7086563,
4.662499905,106.5364151,
4.670833111,106.880661,
4.679166794,106.9740753,
4.6875,106.6368637,
4.695833206,106.3168716,
4.704166889,106.7034454,
4.712500095,106.5266571,
4.720833302,106.4250107,
4.729166508,106.2802505,
4.737500191,106.6294937,
4.745833397,106.3724213,
4.754166603,106.1820679,
4.762499809,106.0827713,
4.770833492,105.5949936,
4.779166698,106.1774445,
4.787499905,106.2903519,
4.795833111,105.9568253,
4.804166794,106.0505753,
4.8125,106.0961685,
4.820833206,105.8247604,
4.829166889,105.8388977,
4.837500095,105.651474,
4.845833302,105.7465668,
4.854166508,105.7303391,
4.862500191,105.7917023,
4.870833397,105.5970764,
4.879166603,105.5488129,
4.887499809,105.6374283,
4.895833492,105.1316299,
4.904166698,105.0138779,
4.912499905,105.1455765,
4.920833111,105.2681198,
4.929166794,105.0941467,
4.9375,105.119545,
4.945833206,105.1450577,
4.954166889,104.9680252,
4.962500095,104.7802277,
4.970833302,104.9766541,
4.979166508,105.0326614,
4.987500191,105.1699448,
4.995833397,104.6380386,
5.004166603,105.1768875,
5.012499809,104.4939804,
5.020833492,104.4128647,
5.029166698,104.4199829,
5.037499905,104.4915924,
5.045833111,104.6806335,
5.054166794,104.7227936,
5.0625,104.2220078,
5.070833206,104.3165665,
5.079166889,104.3531799,
5.087500095,104.1636887,
5.095833302,104.4894028,
5.104166508,104.0730972,
5.112500191,104.3598862,
5.120833397,104.2055435,
5.129166603,104.2617798,
5.137499809,104.184906,
5.145833492,104.1751785,
5.154166698,103.7540283,
5.162499905,103.8083115,
5.170833111,103.9830399,
5.179166794,103.5608215,
5.1875,104.1340485,
5.195833206,104.0366135,
5.204166889,103.6408157,
5.212500095,104.0991592,
5.220833302,103.8538513,
5.229166508,103.944725,
5.237500191,103.7584839,
5.245833397,103.5435562,
5.254166603,103.6259689,
5.262499809,103.3299103,
5.270833492,103.6359024,
5.279166698,103.5214691,
5.287499905,103.4712296,
5.295833111,103.8212662,
5.304166794,103.3939438,
5.3125,103.3246307,
5.320833206,103.3924713,
5.329166889,103.1447678,
5.337500095,103.192131,
5.345833302,103.2315292,
5.354166508,103.4464645,
5.362500191,103.0131454,
5.370833397,103.1059341,
5.379166603,103.0549622,
5.387499809,103.0795975,
5.395833492,103.5281677,
5.404166698,103.0541763,
5.412499905,102.7276459,
5.420833111,103.6459808,
5.429166794,103.3218918,
5.4375,102.9384537,
5.445833206,102.7819061,
5.454166889,102.9253235,
5.462500095,103.2332001,
5.470833302,102.8413544,
5.479166508,102.6724319,
5.487500191,102.6378555,
5.495833397,102.2247162,
5.504166603,103.1104889,
5.512499809,102.5164642,
5.520833492,102.7310562,
5.529166698,102.6009445,
5.537499905,102.4616394,
5.545833111,102.4710007,
5.554166794,102.3432312,
5.5625,102.2449493,
5.570833206,102.6016693,
5.579166889,102.1532288,
5.587500095,101.7265091,
5.595833302,102.5684891,
5.604166508,102.2991333,
5.612500191,102.4698715,
5.620833397,102.1980133,
5.629166603,102.1152115,
5.637499809,101.8306274,
5.645833492,101.9424515,
5.654166698,101.9681244,
5.662499905,101.8518372,
5.670833111,101.9454193,
5.679166794,101.9718704,
5.6875,102.3078918,
5.695833206,102.170166,
5.704166889,101.7621918,
5.712500095,101.9536209,
5.720833302,101.7243729,
5.729166508,101.8377151,
5.737500191,101.7608337,
5.745833397,101.5877533,
5.754166603,101.9174194,
5.762499809,101.3040543,
5.770833492,101.7298279,
5.779166698,101.5590897,
5.787499905,101.5048981,
5.795833111,101.4431915,
5.804166794,101.5015488,
5.8125,101.4134674,
5.820833206,101.6639252,
5.829166889,101.2150421,
5.837500095,101.4679947,
5.845833302,101.6653824,
5.854166508,101.2328339,
5.862500191,101.4193115,
5.870833397,101.4210205,
5.879166603,101.7252502,
5.887499809,101.2322769,
5.895833492,101.1963272,
5.904166698,101.4901123,
5.912499905,101.4187622,
5.920833111,100.9434814,
5.929166794,101.0751495,
5.9375,101.4055862,
5.945833206,101.2372513,
5.954166889,101.1418839,
5.962500095,101.0840073,
5.970833302,100.9534531,
5.979166508,100.8931961,
5.987500191,100.9687042,
5.995833397,101.1713181,
6.004166603,100.77108,
6.012499809,100.8946762,
6.020833492,101.048172,
6.029166698,101.0909424,
6.037499905,100.7776489,
6.045833111,100.9523621,
6.054166794,100.5943298,
6.0625,100.870224,
6.070833206,100.8588028,
6.079166889,100.8789902,
6.087500095,100.7147064,
6.095833302,101.0880356,
6.104166508,100.7011337,
6.112500191,100.8842316,
6.120833397,100.559166,
6.129166603,100.6825104,
6.137499809,100.6639252,
6.145833492,100.8570175,
6.154166698,100.8007431,
6.162499905,100.4345245,
6.170833111,100.7107925,
6.179166794,100.9070511,
6.1875,100.071373,
6.195833206,100.4749603,
6.204166889,100.6132126,
6.212500095,100.4271164,
6.220833302,100.4811172,
6.229166508,100.6639786,
6.237500191,100.3480835,
6.245833397,100.1931381,
6.254166603,100.6515808,
6.262499809,100.2844849,
6.270833492,100.5351257,
6.279166698,100.5810776,
6.287499905,100.2881241,
6.295833111,100.3015366,
6.304166794,100.5667267,
6.3125,100.316452,
6.320833206,100.4921265,
6.329166889,100.2626038,
6.337500095,100.3442764,
6.345833302,100.0151901,
6.354166508,100.4656601,
6.362500191,99.96206665,
6.370833397,100.3362122,
6.379166603,100.3899155,
6.387499809,100.0638733,
6.395833492,99.79716492,
6.404166698,99.65991974,
6.412499905,99.80050659,
6.420833111,100.0793076,
6.429166794,100.1193161,
6.4375,100.187767,
6.445833206,100.3267822,
6.454166889,99.99072266,
6.462500095,99.88359833,
6.470833302,100.0937195,
6.479166508,99.99992371,
6.487500191,99.77639008,
6.495833397,99.92234039,
6.504166603,99.7818985,
6.512499809,99.53653717,
6.520833492,99.68196106,
6.529166698,99.7358551,
6.537499905,99.57537079,
6.545833111,99.66293335,
6.554166794,99.42205811,
6.5625,99.6411438,
6.570833206,99.57919312,
6.579166889,100.0179901,
6.587500095,99.459198,
6.595833302,99.41373444,
6.604166508,99.58101654,
6.612500191,99.58176422,
6.620833397,99.34101105,
6.629166603,99.45448303,
6.637499809,99.29192352,
6.645833492,99.73347473,
6.654166698,99.62168884,
6.662499905,99.62169647,
6.670833111,99.26229095,
6.679166794,99.47592163,
6.6875,99.40245056,
6.695833206,99.66968536,
6.704166889,99.33345032,
6.712500095,99.59111023,
6.720833302,99.62949371,
6.729166508,98.99099731,
6.737500191,99.24836731,
6.745833397,99.28372955,
6.754166603,99.64742279,
6.762499809,99.24381256,
6.770833492,99.15701294,
6.779166698,99.11878204,
6.787499905,98.98317719,
6.795833111,99.30345154,
6.804166794,99.47013855,
6.8125,98.91078949,
6.820833206,99.08984375,
6.829166889,99.24012756,
6.837500095,99.19330597,
6.845833302,99.11865997,
6.854166508,99.14845276,
6.862500191,99.11880493,
6.870833397,99.23013306,
6.879166603,99.30827332,
6.887499809,98.91122437,
6.895833492,98.85131073,
6.904166698,99.05400085,
6.912499905,99.10349274,
6.920833111,98.88544464,
6.929166794,99.02350616,
6.9375,98.68871307,
6.945833206,98.99937439,
6.954166889,99.06246948,
6.962500095,98.95637512,
6.970833302,99.00558472,
6.979166508,98.80673981,
6.987500191,98.78453064,
6.995833397,99.28782654,
7.004166603,98.75750732,
7.012499809,98.96768188,
7.020833492,98.72112274,
7.029166698,98.68726349,
7.037499905,98.61343384,
7.045833111,98.64081573,
7.054166794,98.61000824,
7.0625,98.58507538,
7.070833206,98.73719025,
7.079166889,98.38319397,
7.087500095,98.7390213,
7.095833302,98.55286407,
7.104166508,98.9329834,
7.112500191,98.89818573,
7.120833397,98.52619171,
7.129166603,98.58370972,
7.137499809,98.53207397,
7.145833492,98.91664124,
7.154166698,98.79669189,
7.162499905,98.47459412,
7.170833111,98.49316406,
7.179166794,98.27349091,
7.1875,98.52330017,
7.195833206,98.17315674,
7.204166889,98.43709564,
7.212500095,98.35697174,
7.220833302,98.07830048,
7.229166508,98.43013,
7.237500191,98.39016724,
7.245833397,98.39941406,
7.254166603,98.38446045,
7.262499809,98.41333008,
7.270833492,98.32660675,
7.279166698,98.5541687,
7.287499905,98.22966003,
7.295833111,97.8787384,
7.304166794,98.40419006,
7.3125,98.48698425,
7.320833206,98.62824249,
7.329166889,98.04367828,
7.337500095,97.92952728,
7.345833302,98.19213867,
7.354166508,98.18692017,
7.362500191,98.2321167,
7.370833397,98.25246429,
7.379166603,98.25777435,
7.387499809,98.40470886,
7.395833492,98.17793274,
7.404166698,98.14315796,
7.412499905,97.98232269,
7.420833111,98.17383575,
7.429166794,98.33102417,
7.4375,97.98280334,
7.445833206,98.43286896,
7.454166889,98.22363281,
7.462500095,98.03736877,
7.470833302,98.23284149,
7.479166508,97.81327057,
7.487500191,98.16664886,
7.495833397,97.84015656,
7.504166603,97.99854279,
7.512499809,97.94047546,
7.520833492,98.03334808,
7.529166698,97.87529755,
7.537499905,98.20075989,
7.545833111,97.93389893,
7.554166794,97.9132843,
7.5625,97.70732117,
7.570833206,98.06932831,
7.579166889,98.08242798,
7.587500095,97.95429993,
7.595833302,98.22278595,
7.604166508,98.21858215,
7.612500191,97.49568176,
7.620833397,98.34870911,
7.629166603,97.61446381,
7.637499809,97.98484039,
7.645833492,97.7557373,
7.654166698,97.75019073,
7.662499905,98.16602325,
7.670833111,97.8286972,
7.679166794,97.83935547,
7.6875,97.51717377,
7.695833206,98.05487061,
7.704166889,97.64193726,
7.712500095,97.83700562,
7.720833302,97.59863281,
7.729166508,97.77651978,
7.737500191,97.41827393,
7.745833397,97.71839142,
7.754166603,97.82937622,
7.762499809,97.7826767,
7.770833492,97.70995331,
7.779166698,97.68183899,
7.787499905,97.85453033,
7.795833111,97.54692078,
7.804166794,97.67838287,
7.8125,98.17516327,
7.820833206,98.04666138,
7.829166889,97.75421906,
7.837500095,97.41320038,
7.845833302,97.63293457,
7.854166508,97.72811127,
7.862500191,97.81410217,
7.870833397,97.79998016,
7.879166603,97.45522308,
7.887499809,97.65444183,
7.895833492,97.66069031,
7.904166698,97.63230133,
7.912499905,97.83103943,
7.920833111,97.57641602,
7.929166794,97.34914398,
7.9375,97.38238525,
7.945833206,97.78633118,
7.954166889,97.32995605,
7.962500095,97.17481232,
7.970833302,97.64150238,
7.979166508,97.54837036,
7.987500191,97.30890656,
7.995833397,97.64784241,

