1,,
Time (min),Intensity (a.u.),
0.0008333333535,26.19997025,
0.002500000177,26.02409935,
0.004166666884,25.96714401,
0.005833333358,26.2538681,
0.007500000298,25.92111588,
0.009166667238,25.51151085,
0.01083333418,26.3894577,
0.01250000019,26.21121025,
0.01416666713,25.9818058,
0.01583333313,26.74383163,
0.01750000194,26.21414375,
0.01916666701,25.91127968,
0.02083333395,26.68045998,
0.02250000089,26.20719337,
0.02416666783,25.96026993,
0.02583333477,26.3074894,
0.02749999985,26.02601433,
0.02916666679,26.1586647,
0.03083333373,26.41133308,
0.03250000253,26.23167992,
0.03416666761,25.59140778,
0.03583333641,26.30209923,
0.03750000149,26.27804565,
0.03916667029,26.44959641,
0.04083333537,25.63392067,
0.04250000045,26.42691422,
0.04416666925,26.21725082,
0.04583333433,26.38363838,
0.04750000313,25.74122238,
0.04916666821,26.53530312,
0.05083333328,26.5819397,
0.05250000209,26.19814301,
0.05416666716,26.08235741,
0.05583333597,26.19388199,
0.05750000104,26.27416229,
0.05916666612,26.03700638,
0.06083333492,26.27975464,
0.0625,26.61986923,
0.06416667253,26.07842636,
0.0658333376,26.3281498,
0.06750000268,26.29833603,
0.06916666776,26.25720024,
0.07083333284,26.13280106,
0.07249999791,25.74683952,
0.07416667044,26.09124947,
0.07583333552,26.33588982,
0.0775000006,26.07165527,
0.07916666567,26.47250366,
0.08083333075,26.44282341,
0.08250000328,26.25621033,
0.08416666836,25.89245605,
0.08583333343,26.07629585,
0.08749999851,26.29890633,
0.08916666359,26.47209167,
0.09083333611,26.01295853,
0.09250000119,25.979496,
0.09416666627,26.1814537,
0.09583333135,25.97938919,
0.09749999642,26.05981255,
0.09916666895,26.1542778,
0.100833334,26.27925491,
0.1024999991,26.54964447,
0.1041666642,26.59596062,
0.1058333293,26.08400917,
0.1075000018,26.43867111,
0.1091666669,26.40815163,
0.1108333319,26.33818817,
0.112499997,26.24518204,
0.1141666621,26.09003067,
0.1158333346,26.29654121,
0.1174999997,26.3333149,
0.1191666648,26.20940208,
0.1208333299,25.64681625,
0.1224999949,25.86816788,
0.1241666749,26.02588081,
0.1258333325,25.96757126,
0.1274999976,26.57421494,
0.1291666627,26.44182014,
0.1308333278,25.7497921,
0.1325000077,26.25642776,
0.1341666728,26.09895706,
0.1358333379,26.35487175,
0.137500003,26.2521553,
0.1391666681,26.14281082,
0.1408333331,26.32398224,
0.1424999982,26.26789093,
0.1441666782,25.56960297,
0.1458333284,26.49839783,
0.1475000083,26.02632332,
0.1491666585,26.2664814,
0.1508333385,26.29706764,
0.1525000036,26.46193123,
0.1541666687,26.2338829,
0.1558333337,26.09832382,
0.1574999988,26.21908188,
0.1591666639,25.9219532,
0.1608333439,25.97956467,
0.162499994,26.24273872,
0.164166674,26.29065895,
0.1658333242,26.41227531,
0.1675000042,26.06868935,
0.1691666692,25.89287758,
0.1708333343,26.40518761,
0.1724999994,25.7610302,
0.1741666645,26.28939629,
0.1758333296,26.21921349,
0.1775000095,26.6038475,
0.1791666597,26.26379395,
0.1808333397,26.42678452,
0.1824999899,26.3303299,
0.1841666698,26.36923981,
0.1858333498,25.98644638,
0.1875,26.30172348,
0.18916668,26.27774048,
0.1908333302,25.56658363,
0.1925000101,26.13565636,
0.1941666752,25.8824482,
0.1958333403,26.59236908,
0.1975000054,26.07849503,
0.1991666704,25.46386528,
0.2008333355,26.26571274,
0.2025000155,26.53061295,
0.2041666657,25.6527977,
0.2058333457,26.25004387,
0.2074999958,26.52187347,
0.2091666758,25.74957466,
0.2108333409,25.86787796,
0.212500006,25.49153137,
0.214166671,25.90006065,
0.2158333361,25.43721199,
0.2175000012,26.20194817,
0.2191666812,26.58067131,
0.2208333313,25.65385628,
0.2225000113,26.35323524,
0.2241666615,26.12117958,
0.2258333415,25.8352375,
0.2275000066,26.04685783,
0.2291666716,25.82778549,
0.2308333367,26.30964661,
0.2325000018,26.07669067,
0.2341666669,25.85176659,
0.2358333468,26.06236649,
0.237499997,26.57534027,
0.239166677,26.00016975,
0.2408333272,26.22520828,
0.2425000072,26.20902634,
0.2441666722,26.54145432,
0.2458333373,26.3706131,
0.2475000024,25.96210861,
0.2491666675,25.64313507,
0.2508333325,26.25717163,
0.2524999976,25.92716599,
0.2541666627,26.68503189,
0.2558333278,26.16798782,
0.2574999928,25.87664032,
0.2591666579,25.86452866,
0.2608333528,25.60845757,
0.2624999881,26.07753944,
0.264166683,25.93005371,
0.2658333182,26.13171196,
0.2675000131,25.87212944,
0.2691666484,25.80606842,
0.2708333433,26.2194767,
0.2725000083,26.38872528,
0.2741666734,26.11050606,
0.2758333385,25.96733475,
0.2775000036,25.96407509,
0.2791666687,26.21225739,
0.2808333337,25.84422112,
0.2824999988,26.05541611,
0.2841666937,25.75546265,
0.285833329,26.71377182,
0.287499994,25.86857414,
0.2891666591,25.97080421,
0.290833354,25.99097824,
0.2925000191,26.31346321,
0.2941666543,26.11294937,
0.2958333194,26.09843445,
0.2975000143,26.31857109,
0.2991666794,25.99347115,
0.3008333445,25.94157219,
0.3024999797,25.7980423,
0.3041666746,26.22912407,
0.3058333397,25.47640228,
0.3075000048,26.03886795,
0.3091666996,26.22398949,
0.3108333349,26.54470253,
0.3125,25.83215714,
0.3141666651,25.98613358,
0.31583336,25.97775841,
0.317500025,25.74224854,
0.3191666603,26.39813995,
0.3208333254,25.86793327,
0.3225000203,25.78612328,
0.3241666853,25.46492386,
0.3258333504,26.01669312,
0.3274999857,26.27529716,
0.3291666806,26.04338837,
0.3308333457,26.13704681,
0.3325000107,25.74399567,
0.3341666758,26.11082077,
0.3358333409,26.09843254,
0.337500006,25.91261673,
0.339166671,25.73208427,
0.3408333361,25.71556854,
0.342500031,25.96967316,
0.3441666663,26.17145729,
0.3458333313,25.7316246,
0.3474999964,26.20077133,
0.3491666913,26.04567337,
0.3508333564,26.38620186,
0.3524999917,26.42353439,
0.3541666567,25.95789337,
0.3558333516,26.01501465,
0.3575000167,26.43724251,
0.3591666818,26.04172707,
0.360833317,25.5690136,
0.3625000119,26.14511871,
0.364166677,26.28620911,
0.3658333421,25.96502113,
0.3675000072,26.41395378,
0.3691666722,26.33473396,
0.3708333373,26.34874916,
0.3725000024,25.94827843,
0.3741666675,25.9835434,
0.3758333623,25.99242592,
0.3774999976,25.93659973,
0.3791666627,25.89951515,
0.3808333278,25.9273243,
0.3825000226,25.74617958,
0.3841666877,26.70027924,
0.385833323,25.90816879,
0.3874999881,26.04011154,
0.389166683,26.35958672,
0.390833348,25.85358429,
0.3925000131,26.03558159,
0.3941666484,26.12922478,
0.3958333433,26.54040527,
0.3975000083,26.11390305,
0.3991666734,26.10610771,
0.4008333385,25.83970261,
0.4025000036,25.97149849,
0.4041666687,25.96296883,
0.4058333337,26.2467804,
0.4074999988,26.32356262,
0.4091666937,25.86730766,
0.410833329,25.80553627,
0.412499994,25.74374771,
0.4141666591,26.15154648,
0.415833354,26.21475029,
0.4175000191,25.78297234,
0.4191666543,25.66995811,
0.4208333194,26.47447586,
0.4225000143,26.63602638,
0.4241666794,26.25769615,
0.4258333445,26.2879715,
0.4274999797,26.13348961,
0.4291666746,26.49867249,
0.4308333397,25.89105034,
0.4325000048,26.0874157,
0.4341666996,26.21237373,
0.4358333349,26.30154991,
0.4375,26.19980431,
0.4391666651,26.77026749,
0.44083336,25.9961834,
0.442500025,25.91472244,
0.4441666603,26.20041275,
0.4458333254,25.84652328,
0.4475000203,25.95153618,
0.4491666853,26.06600571,
0.4508333504,26.49053574,
0.4524999857,26.17798042,
0.4541666806,26.11340141,
0.4558333457,26.36591148,
0.4575000107,26.03706741,
0.4591666758,26.33981895,
0.4608333409,26.17453194,
0.462500006,26.3491993,
0.464166671,26.36715317,
0.4658333361,26.04631233,
0.467500031,25.89374161,
0.4691666663,25.96768951,
0.4708333313,26.3458252,
0.4724999964,26.01873779,
0.4741666913,26.05050087,
0.4758333564,25.93223381,
0.4774999917,26.33915138,
0.4791666567,26.15922356,
0.4808333516,26.41839981,
0.4825000167,25.90014648,
0.4841666818,26.05840302,
0.485833317,25.93409538,
0.4875000119,26.05632591,
0.489166677,25.83982468,
0.4908333421,25.96591187,
0.4925000072,26.39564705,
0.4941666722,26.40141106,
0.4958333373,25.89841461,
0.4975000024,26.31362343,
0.4991666675,26.83397102,
0.5008333325,26.02103043,
0.5024999976,26.29263306,
0.5041666627,26.58496284,
0.5058333278,26.27357483,
0.5074999928,26.09675598,
0.5091666579,25.87887955,
0.510833323,26.00437546,
0.5124999881,26.00338554,
0.5141666532,26.02070999,
0.5158333182,25.83606339,
0.5175000429,25.72159004,
0.5191666484,25.86392975,
0.5208333135,26.41963768,
0.5224999785,25.93239212,
0.5241667032,25.99355507,
0.5258333683,25.83551788,
0.5274999738,26.25240707,
0.5291666389,26.39972687,
0.5308333635,26.38602448,
0.5325000286,26.07548904,
0.5341666341,26.34917641,
0.5358333588,26.73344612,
0.5375000238,26.14898491,
0.5391666889,25.77310371,
0.540833354,25.8811512,
0.5424999595,25.96361732,
0.5441666842,26.05810928,
0.5458333492,25.91963005,
0.5475000143,26.52809525,
0.5491666794,25.94818497,
0.5508333445,26.06873322,
0.5525000095,26.40001869,
0.5541666746,25.93082428,
0.5558333993,26.02984619,
0.5575000048,26.00016212,
0.5591666698,25.84233665,
0.5608333349,25.94563866,
0.5625,26.32266045,
0.5641667247,26.31794357,
0.5658333302,25.6197052,
0.5674999952,25.52295113,
0.5691667199,26.07570457,
0.5708333254,26.06844139,
0.5725000501,26.28582954,
0.5741666555,26.33038139,
0.5758333206,26.47285271,
0.5775000453,25.85251808,
0.5791666508,26.38824081,
0.5808333755,26.10198784,
0.5825000405,25.92208862,
0.584166646,26.21566582,
0.5858333707,25.58094597,
0.5874999762,26.01494217,
0.5891667008,26.2332859,
0.5908333659,26.26256561,
0.5924999714,26.08808708,
0.5941666961,25.87678719,
0.5958333611,25.76379967,
0.5975000262,25.82735634,
0.5991666913,26.01815224,
0.6008332968,26.34418869,
0.6025000215,25.98880005,
0.6041666865,26.15835571,
0.6058333516,26.12112808,
0.6075000167,26.58371544,
0.6091666818,26.25216675,
0.6108333468,25.9758606,
0.6125000119,26.03935051,
0.614166677,26.49283791,
0.6158333421,26.33353424,
0.6175000072,25.82413101,
0.6191666722,26.6039772,
0.6208333373,26.13599777,
0.622500062,26.48460197,
0.6241666675,25.91065598,
0.6258333325,26.38496208,
0.6274999976,26.39348984,
0.6291666627,25.75567818,
0.6308333874,26.38541222,
0.6324999928,26.54783249,
0.6341666579,26.19753456,
0.6358333826,26.23175621,
0.6374999881,26.15013123,
0.6391667128,26.26267433,
0.6408333182,26.43893051,
0.6424999833,25.99410057,
0.644166708,26.14085388,
0.6458333135,26.56424332,
0.6475000381,26.17080688,
0.6491667032,25.84056091,
0.6508333087,25.93604851,
0.6525000334,26.21807289,
0.6541666389,26.2202816,
0.6558333635,26.26170921,
0.6575000286,26.12438393,
0.6591666341,26.52841568,
0.6608333588,25.91543388,
0.6625000238,25.45959854,
0.6641666889,25.21633911,
0.665833354,26.16541862,
0.6674999595,25.98523521,
0.6691666842,26.40359497,
0.6708333492,26.19957161,
0.6725000143,26.16347122,
0.6741666794,26.60898972,
0.6758333445,26.04307747,
0.6775000095,26.49469757,
0.6791666746,26.18634224,
0.6808333993,26.22585487,
0.6825000048,26.14275551,
0.6841666698,25.63014793,
0.6858333349,26.14905357,
0.6875,25.86803818,
0.6891667247,26.06451607,
0.6908333302,26.60670853,
0.6924999952,26.07805634,
0.6941667199,25.99386406,
0.6958333254,26.11856461,
0.6975000501,26.21816254,
0.6991666555,26.1810112,
0.7008333206,26.33172226,
0.7025000453,26.59642982,
0.7041666508,26.44318008,
0.7058333755,26.38405037,
0.7075000405,26.51848221,
0.709166646,25.99295998,
0.7108333707,25.88410759,
0.7124999762,26.21235847,
0.7141667008,26.05398941,
0.7158333659,26.04607201,
0.7174999714,26.24270058,
0.7191666961,26.25683403,
0.7208333611,26.08580208,
0.7225000262,25.70686531,
0.7241666913,25.67809677,
0.7258332968,25.92323494,
0.7275000215,25.8435955,
0.7291666865,26.55605507,
0.7308333516,25.72614098,
0.7325000167,26.17049026,
0.7341666818,25.69468117,
0.7358333468,26.07000923,
0.7375000119,25.98231125,
0.739166677,26.02007294,
0.7408333421,26.20972443,
0.7425000072,26.17170906,
0.7441666722,26.19538689,
0.7458333373,26.07720375,
0.747500062,26.46240425,
0.7491666675,25.68968582,
0.7508333325,25.75486374,
0.7524999976,25.91862488,
0.7541666627,25.65805435,
0.7558333874,25.56494904,
0.7574999928,25.8993721,
0.7591666579,26.0033989,
0.7608333826,25.84384537,
0.7624999881,26.0831871,
0.7641667128,26.20669937,
0.7658333182,26.15112495,
0.7674999833,26.07820511,
0.769166708,26.0611763,
0.7708333135,26.23563194,
0.7725000381,26.38796425,
0.7741667032,26.15716934,
0.7758333087,25.83045769,
0.7775000334,25.69326019,
0.7791666389,25.52665901,
0.7808333635,26.15304565,
0.7825000286,26.38861275,
0.7841666341,26.30815697,
0.7858333588,25.78437614,
0.7875000238,26.25779533,
0.7891666889,26.32091331,
0.790833354,25.5773201,
0.7924999595,25.95108223,
0.7941666842,25.75190926,
0.7958333492,25.94160461,
0.7975000143,26.37158585,
0.7991666794,26.23564339,
0.8008333445,25.72324753,
0.8025000095,26.29358864,
0.8041666746,25.94363976,
0.8058333993,26.13419533,
0.8075000048,26.46012306,
0.8091666698,26.22564316,
0.8108333349,26.12614632,
0.8125,25.69584274,
0.8141667247,26.29857254,
0.8158333302,26.53730011,
0.8174999952,25.6642437,
0.8191667199,25.94559097,
0.8208333254,26.07230949,
0.8225000501,26.01610184,
0.8241666555,26.17950249,
0.8258333206,26.46156311,
0.8275000453,26.22819901,
0.8291666508,26.11615753,
0.8308333755,25.84318161,
0.8325000405,26.34745979,
0.834166646,26.11955643,
0.8358333707,26.51472473,
0.8374999762,26.02732468,
0.8391667008,26.07460785,
0.8408333659,26.2485714,
0.8424999714,25.92235756,
0.8441666961,26.05081177,
0.8458333611,26.2504158,
0.8475000262,26.44439697,
0.8491666913,26.22504044,
0.8508332968,25.94371605,
0.8525000215,25.91794014,
0.8541666865,26.16215706,
0.8558333516,26.38229942,
0.8575000167,26.30481339,
0.8591666818,26.00402641,
0.8608333468,26.1253109,
0.8625000119,26.15907097,
0.864166677,26.16115379,
0.8658333421,26.36202812,
0.8675000072,26.19441605,
0.8691666722,25.6416378,
0.8708333373,26.22866058,
0.872500062,26.32984352,
0.8741666675,26.12265396,
0.8758333325,25.86131668,
0.8774999976,26.26027298,
0.8791666627,26.02437973,
0.8808333874,26.14839363,
0.8824999928,26.20953751,
0.8841666579,25.68446732,
0.8858333826,26.30917931,
0.8874999881,26.49696922,
0.8891667128,26.01626015,
0.8908333182,25.7099514,
0.8924999833,26.12565422,
0.894166708,25.76131248,
0.8958333135,25.68044853,
0.8975000381,25.97500992,
0.8991667032,26.17911339,
0.9008333087,25.97924042,
0.9025000334,25.33633995,
0.9041666389,26.06344032,
0.9058333635,26.26960945,
0.9075000286,25.76545906,
0.9091666341,25.7658844,
0.9108333588,26.08323479,
0.9125000238,26.63990784,
0.9141666889,26.55664635,
0.915833354,26.11474609,
0.9174999595,25.59243965,
0.9191666842,26.07847595,
0.9208333492,26.44587135,
0.9225000143,26.10688019,
0.9241666794,26.16986656,
0.9258333445,25.81470108,
0.9275000095,26.70019341,
0.9291666746,26.15018082,
0.9308333993,25.90354729,
0.9325000048,26.30401993,
0.9341666698,26.06267738,
0.9358333349,26.23516846,
0.9375,26.35774994,
0.9391667247,26.44165421,
0.9408333302,25.78090286,
0.9424999952,26.06507874,
0.9441667199,26.13842583,
0.9458333254,25.98569298,
0.9475000501,26.20010757,
0.9491666555,26.26243591,
0.9508333206,26.4227047,
0.9525000453,26.0698967,
0.9541666508,26.58536148,
0.9558333755,26.18141747,
0.9575000405,26.11104012,
0.959166646,26.08009338,
0.9608333707,25.83072853,
0.9624999762,26.02992249,
0.9641667008,26.54240799,
0.9658333659,26.07140732,
0.9674999714,26.22733879,
0.9691666961,26.18337631,
0.9708333611,26.49656487,
0.9725000262,26.26535416,
0.9741666913,26.04771996,
0.9758332968,26.13841438,
0.9775000215,26.08797455,
0.9791666865,26.52552795,
0.9808333516,26.6251049,
0.9825000167,26.27681923,
0.9841666818,25.61075592,
0.9858333468,26.43758011,
0.9875000119,26.23887825,
0.989166677,25.94340897,
0.9908333421,26.19650078,
0.9925000072,26.02069664,
0.9941666722,26.15523338,
0.9958333373,26.49134636,
0.997500062,25.87408638,
0.9991666675,26.33277321,
1.000833273,26.0982933,
1.002500057,26.27540398,
1.004166722,26.3891468,
1.005833387,25.90472794,
1.007500052,25.96731949,
1.009166598,26.44698906,
1.010833383,25.98742676,
1.012500048,26.31077766,
1.014166713,25.69297028,
1.015833378,26.20405769,
1.017500043,26.31102753,
1.019166708,26.07385635,
1.020833373,25.63635826,
1.022500038,26.49652672,
1.024166703,26.39957619,
1.025833368,25.7898674,
1.027500033,26.2648716,
1.029166698,26.02700806,
1.030833364,25.99620056,
1.032500029,25.93967247,
1.034166694,26.25486946,
1.035833359,26.07817078,
1.037500024,26.05734634,
1.039166689,26.04181671,
1.040833354,25.85241508,
1.042500019,26.50639343,
1.044166684,26.19356918,
1.045833349,25.69000244,
1.047500014,26.0405407,
1.049166679,26.0685463,
1.050833344,26.01698875,
1.05250001,26.09928322,
1.054166675,26.07881927,
1.05583334,25.91218758,
1.057500005,25.82604027,
1.05916667,26.49761391,
1.060833335,26.5196209,
1.0625,26.20497322,
1.064166665,26.29985428,
1.06583333,26.37635231,
1.067499995,28.1515522,
1.06916666,27.19591331,
1.070833325,28.69423866,
1.07249999,28.23653793,
1.074166775,31.46797371,
1.07583344,30.87022591,
1.077499986,35.45485687,
1.079166651,37.63261414,
1.080833316,37.67723083,
1.0825001,45.57793808,
1.084166765,41.69350815,
1.085833311,47.80282974,
1.087499976,46.35808945,
1.089166641,48.00312424,
1.090833426,52.62306213,
1.092500091,51.22423553,
1.094166636,55.73710632,
1.095833302,55.89055634,
1.097499967,61.29795074,
1.099166751,63.91970825,
1.100833416,65.86332703,
1.102500081,67.15814209,
1.104166627,68.56306458,
1.105833292,70.72894287,
1.107500076,72.11210632,
1.109166741,73.8782196,
1.110833406,75.485672,
1.112499952,77.21710205,
1.114166617,77.66144562,
1.115833402,80.27120972,
1.117500067,81.20841217,
1.119166732,83.08860779,
1.120833278,84.38970947,
1.122499943,85.31261444,
1.124166727,86.77040863,
1.125833392,88.37321472,
1.127500057,89.21421814,
1.129166722,90.11304474,
1.130833268,91.27189636,
1.132500052,91.69442749,
1.134166718,93.18009186,
1.135833383,94.49295807,
1.137500048,96.06222534,
1.139166594,96.92442322,
1.140833378,97.54567719,
1.142500043,98.23332977,
1.144166708,99.42230225,
1.145833373,99.22322083,
1.147499919,101.2022018,
1.149166703,102.9846191,
1.150833368,104.1113205,
1.152500033,104.5684204,
1.154166698,106.2963791,
1.155833364,106.6086655,
1.157500029,107.4448318,
1.159166694,107.8172989,
1.160833359,108.9688644,
1.162500024,109.8604355,
1.164166689,110.5544434,
1.165833354,110.3001862,
1.167500019,112.7836151,
1.169166684,112.7419128,
1.170833349,113.2471466,
1.172500014,113.5702133,
1.174166799,115.2255554,
1.175833344,116.4142685,
1.17750001,116.209053,
1.179166675,116.9128494,
1.18083334,117.2708511,
1.182500124,117.6863632,
1.18416667,118.5044174,
1.185833335,121.0365143,
1.1875,121.472229,
1.189166665,120.2450104,
1.190833449,122.1539688,
1.192499995,122.5293579,
1.19416666,123.6561966,
1.195833325,123.4889145,
1.19749999,125.0611115,
1.199166775,124.872467,
1.20083344,124.5057907,
1.202499986,126.1085129,
1.204166651,126.3225937,
1.205833316,126.5430603,
1.2075001,126.7570114,
1.209166765,128.3231049,
1.210833311,127.9614563,
1.212499976,128.3026886,
1.214166641,129.343338,
1.215833426,129.7592316,
1.217500091,130.4405212,
1.219166636,131.1469574,
1.220833302,130.9017181,
1.222499967,132.1780701,
1.224166751,131.4325562,
1.225833416,133.0974731,
1.227500081,133.6669464,
1.229166627,133.0404816,
1.230833292,134.5773163,
1.232500076,134.1211548,
1.234166741,134.8192902,
1.235833406,134.8438568,
1.237499952,135.5083466,
1.239166617,135.7132416,
1.240833402,137.5428772,
1.242500067,137.6178894,
1.244166732,138.1923676,
1.245833278,137.7421875,
1.247499943,137.8572388,
1.249166727,138.9080658,
1.250833392,139.6366882,
1.252500057,139.5170135,
1.254166722,141.1618195,
1.255833268,140.5107117,
1.257500052,141.8256836,
1.259166718,140.3306274,
1.260833383,142.300766,
1.262500048,142.7562408,
1.264166594,141.8271942,
1.265833378,142.9632263,
1.267500043,142.9654846,
1.269166708,142.958252,
1.270833373,143.0237885,
1.272499919,143.4178467,
1.274166703,144.3541107,
1.275833368,144.1799927,
1.277500033,145.9713745,
1.279166698,144.9369659,
1.280833364,145.5150757,
1.282500029,146.7262726,
1.284166694,146.5088959,
1.285833359,146.8342285,
1.287500024,146.512146,
1.289166689,147.4693756,
1.290833354,146.8348389,
1.292500019,147.387146,
1.294166684,147.7826996,
1.295833349,147.423584,
1.297500014,147.9815979,
1.299166799,148.3519745,
1.300833344,149.0698242,
1.30250001,150.3531189,
1.304166675,149.5544128,
1.30583334,149.5343323,
1.307500124,149.3896637,
1.30916667,149.3087616,
1.310833335,150.4965057,
1.3125,151.8806152,
1.314166665,149.9938507,
1.315833449,150.8683472,
1.317499995,151.6744385,
1.31916666,151.9823151,
1.320833325,153.0919495,
1.32249999,152.4721527,
1.324166775,152.4130249,
1.32583344,153.1187897,
1.327499986,152.4535828,
1.329166651,152.3211365,
1.330833316,153.3613281,
1.3325001,153.877594,
1.334166765,155.3075562,
1.335833311,153.8700714,
1.337499976,153.552475,
1.339166641,154.2303009,
1.340833426,155.1302185,
1.342500091,154.9984436,
1.344166636,155.5798492,
1.345833302,154.8074036,
1.347499967,155.9034882,
1.349166751,154.954483,
1.350833416,157.4739838,
1.352500081,156.1998596,
1.354166627,156.8153992,
1.355833292,155.9280396,
1.357500076,157.1561127,
1.359166741,156.0038605,
1.360833406,157.1703186,
1.362499952,158.4472351,
1.364166617,157.0674438,
1.365833402,157.4076233,
1.367500067,157.8436279,
1.369166732,158.2556763,
1.370833278,159.3209991,
1.372499943,158.6012573,
1.374166727,159.0502014,
1.375833392,158.1487732,
1.377500057,158.0876923,
1.379166722,158.9186401,
1.380833268,158.4143372,
1.382500052,159.3557739,
1.384166718,159.5385742,
1.385833383,159.4746552,
1.387500048,160.742157,
1.389166594,160.256485,
1.390833378,161.7116241,
1.392500043,160.8233643,
1.394166708,159.6941071,
1.395833373,160.4492645,
1.397499919,161.6766205,
1.399166703,161.9711609,
1.400833368,162.0792389,
1.402500033,162.2260437,
1.404166698,160.9559937,
1.405833364,162.2348785,
1.407500029,161.548584,
1.409166694,162.0474243,
1.410833359,161.7295837,
1.412500024,162.0758514,
1.414166689,162.4298706,
1.415833354,161.8900757,
1.417500019,163.6929626,
1.419166684,162.9055176,
1.420833349,163.495224,
1.422500014,162.6332855,
1.424166799,162.4863434,
1.425833344,164.8318634,
1.42750001,162.9734955,
1.429166675,164.8397827,
1.43083334,164.0063629,
1.432500124,164.500946,
1.43416667,164.2983093,
1.435833335,163.8173523,
1.4375,165.1522217,
1.439166665,165.4450531,
1.440833449,165.0852814,
1.442499995,164.9621887,
1.44416666,166.614212,
1.445833325,166.39534,
1.44749999,164.6849823,
1.449166775,164.6620636,
1.45083344,164.1675568,
1.452499986,165.9372253,
1.454166651,165.6267548,
1.455833316,165.8012085,
1.4575001,166.6401825,
1.459166765,168.5242767,
1.460833311,165.5501862,
1.462499976,166.6822815,
1.464166641,166.1084595,
1.465833426,166.6319275,
1.467500091,167.1536865,
1.469166636,167.1717987,
1.470833302,167.7722321,
1.472499967,168.6963043,
1.474166751,166.4475403,
1.475833416,167.3403625,
1.477500081,167.4736481,
1.479166627,166.973114,
1.480833292,166.7296448,
1.482500076,167.8204956,
1.484166741,168.2424622,
1.485833406,168.3860626,
1.487499952,169.0586395,
1.489166617,169.2424622,
1.490833402,168.8304138,
1.492500067,167.7660065,
1.494166732,169.0634003,
1.495833278,168.5523834,
1.497499943,169.7322083,
1.499166727,168.9292145,
1.500833392,167.8193665,
1.502500057,169.8785858,
1.504166722,169.6560822,
1.505833268,168.045166,
1.507500052,169.8158875,
1.509166718,169.5432739,
1.510833383,169.0679626,
1.512500048,171.6850433,
1.514166594,169.4161224,
1.515833378,170.5932922,
1.517500043,168.7685699,
1.519166708,169.9891663,
1.520833373,171.2866058,
1.522499919,169.7098541,
1.524166703,169.9253693,
1.525833368,169.9116211,
1.527500033,170.2179413,
1.529166698,171.228241,
1.530833364,169.8762665,
1.532500029,169.9763031,
1.534166694,171.2506256,
1.535833359,171.9304047,
1.537500024,171.0526276,
1.539166689,171.0140991,
1.540833354,170.7858734,
1.542500019,171.3577118,
1.544166684,171.9362793,
1.545833349,171.5199432,
1.547500014,171.3484497,
1.549166799,173.1187439,
1.550833344,170.5712128,
1.55250001,170.9342499,
1.554166675,170.5308228,
1.55583334,171.5786896,
1.557500124,171.6119995,
1.55916667,173.7837982,
1.560833335,172.654541,
1.5625,172.6281128,
1.564166665,172.953949,
1.565833449,172.6422272,
1.567499995,173.3036804,
1.56916666,171.1644897,
1.570833325,172.024353,
1.57249999,174.1000671,
1.574166775,172.8012238,
1.57583344,173.4937134,
1.577499986,172.7440948,
1.579166651,173.4982605,
1.580833316,173.3949432,
1.5825001,173.6187286,
1.584166765,172.8373108,
1.585833311,172.9171143,
1.587499976,173.2819672,
1.589166641,173.5596313,
1.590833426,174.9022522,
1.592500091,174.5775909,
1.594166636,172.6469269,
1.595833302,173.9787903,
1.597499967,174.0205383,
1.599166751,173.9634857,
1.600833416,174.912384,
1.602500081,173.5670471,
1.604166627,173.9996796,
1.605833292,175.7505188,
1.607500076,174.0341644,
1.609166741,174.7103729,
1.610833406,174.4341583,
1.612499952,174.503952,
1.614166617,174.8978271,
1.615833402,174.3765106,
1.617500067,175.4148712,
1.619166732,175.1582336,
1.620833278,174.7815247,
1.622499943,174.8886566,
1.624166727,175.1270447,
1.625833392,175.7172089,
1.627500057,175.2687073,
1.629166722,174.9265594,
1.630833268,175.3602905,
1.632500052,175.4412079,
1.634166718,175.0492249,
1.635833383,175.031723,
1.637500048,175.3118439,
1.639166594,175.2628326,
1.640833378,175.6548767,
1.642500043,176.0290375,
1.644166708,176.5483398,
1.645833373,176.5634003,
1.647499919,176.2055969,
1.649166703,175.5915222,
1.650833368,176.2516022,
1.652500033,176.2550354,
1.654166698,174.9278259,
1.655833364,176.9519348,
1.657500029,176.4286804,
1.659166694,177.1429291,
1.660833359,176.7485352,
1.662500024,175.4375763,
1.664166689,177.4117584,
1.665833354,176.0831299,
1.667500019,178.4239349,
1.669166684,176.9575806,
1.670833349,176.9400024,
1.672500014,177.2241974,
1.674166799,177.3249054,
1.675833344,175.3249512,
1.67750001,177.818222,
1.679166675,176.9239502,
1.68083334,176.5145416,
1.682500124,177.5003662,
1.68416667,177.0261688,
1.685833335,177.1216278,
1.6875,176.2855377,
1.689166665,176.2131042,
1.690833449,177.6685638,
1.692499995,177.9246674,
1.69416666,177.9597015,
1.695833325,177.7343445,
1.69749999,176.2950439,
1.699166775,177.1585388,
1.70083344,176.7707062,
1.702499986,179.6216125,
1.704166651,178.3132782,
1.705833316,178.585144,
1.7075001,176.4927368,
1.709166765,177.6491852,
1.710833311,178.5093079,
1.712499976,177.3769836,
1.714166641,177.2446594,
1.715833426,178.3182373,
1.717500091,176.659317,
1.719166636,179.0682678,
1.720833302,177.9620361,
1.722499967,177.8458862,
1.724166751,177.3281403,
1.725833416,178.8615875,
1.727500081,178.491806,
1.729166627,179.4786224,
1.730833292,177.5977936,
1.732500076,178.6642761,
1.734166741,178.678421,
1.735833406,179.0131836,
1.737499952,178.6460419,
1.739166617,177.7437897,
1.740833402,178.2792358,
1.742500067,178.1287384,
1.744166732,177.8084869,
1.745833278,177.9023743,
1.747499943,178.8406525,
1.749166727,179.5922546,
1.750833392,178.7697601,
1.752500057,180.0563812,
1.754166722,179.1897736,
1.755833268,179.3027344,
1.757500052,180.7706146,
1.759166718,179.2835388,
1.760833383,179.2437286,
1.762500048,180.0604248,
1.764166594,178.2057648,
1.765833378,181.010788,
1.767500043,179.1455536,
1.769166708,179.0483704,
1.770833373,179.5848541,
1.772499919,179.5828857,
1.774166703,180.3374176,
1.775833368,179.5602417,
1.777500033,179.9638672,
1.779166698,180.0334015,
1.780833364,179.9770966,
1.782500029,179.4148712,
1.784166694,179.2563782,
1.785833359,180.9433746,
1.787500024,180.096344,
1.789166689,179.7297821,
1.790833354,180.3699188,
1.792500019,178.1465149,
1.794166684,180.9160919,
1.795833349,179.9771118,
1.797500014,179.8337097,
1.799166799,179.177124,
1.800833344,181.3038025,
1.80250001,179.9522247,
1.804166675,180.7078552,
1.80583334,180.5002136,
1.807500124,181.3357391,
1.80916667,180.7715454,
1.810833335,180.2800903,
1.8125,180.6966248,
1.814166665,180.51474,
1.815833449,179.2270203,
1.817499995,180.8360138,
1.81916666,180.7757568,
1.820833325,180.7983246,
1.82249999,180.6837311,
1.824166775,180.4899445,
1.82583344,180.1976471,
1.827499986,180.1168213,
1.829166651,180.737442,
1.830833316,180.436554,
1.8325001,180.7651215,
1.834166765,180.4537506,
1.835833311,181.4587402,
1.837499976,181.4052582,
1.839166641,181.7812653,
1.840833426,180.8878784,
1.842500091,180.4866943,
1.844166636,180.3804169,
1.845833302,180.0935364,
1.847499967,180.0545654,
1.849166751,180.6670532,
1.850833416,182.2421112,
1.852500081,180.6917725,
1.854166627,181.2740173,
1.855833292,180.2390594,
1.857500076,181.912674,
1.859166741,181.012619,
1.860833406,180.592514,
1.862499952,182.8215027,
1.864166617,180.9695892,
1.865833402,180.884079,
1.867500067,180.6859283,
1.869166732,182.0495758,
1.870833278,181.3862305,
1.872499943,181.1524963,
1.874166727,180.9464417,
1.875833392,180.8143921,
1.877500057,181.2701263,
1.879166722,181.5045166,
1.880833268,181.024231,
1.882500052,181.0263977,
1.884166718,180.9102478,
1.885833383,180.7927246,
1.887500048,182.8890381,
1.889166594,182.417923,
1.890833378,181.7689056,
1.892500043,180.9239044,
1.894166708,181.3721924,
1.895833373,182.247757,
1.897499919,181.6389465,
1.899166703,180.4658813,
1.900833368,182.5554657,
1.902500033,182.3589172,
1.904166698,181.5429688,
1.905833364,181.5676727,
1.907500029,181.5794678,
1.909166694,182.271225,
1.910833359,182.3171234,
1.912500024,183.3766632,
1.914166689,182.2573547,
1.915833354,183.0317078,
1.917500019,183.0046692,
1.919166684,182.3172607,
1.920833349,180.9575043,
1.922500014,182.6636047,
1.924166799,181.9421844,
1.925833344,182.1960602,
1.92750001,182.9536743,
1.929166675,182.4324036,
1.93083334,181.8524017,
1.932500124,182.658783,
1.93416667,182.3091888,
1.935833335,183.1683807,
1.9375,181.9690094,
1.939166665,182.2761536,
1.940833449,183.2069092,
1.942499995,182.7454224,
1.94416666,182.8418427,
1.945833325,182.0420227,
1.94749999,182.795517,
1.949166775,183.4712372,
1.95083344,182.3625946,
1.952499986,182.7370148,
1.954166651,182.9182129,
1.955833316,183.4043732,
1.9575001,183.7055359,
1.959166765,181.3185272,
1.960833311,183.0187378,
1.962499976,182.0082092,
1.964166641,181.7925262,
1.965833426,182.7258759,
1.967500091,183.7592468,
1.969166636,182.7399597,
1.970833302,182.414093,
1.972499967,182.5700989,
1.974166751,183.0672302,
1.975833416,182.6647339,
1.977500081,182.4971313,
1.979166627,183.4536285,
1.980833292,183.1554413,
1.982500076,183.4528809,
1.984166741,183.471405,
1.985833406,183.1918182,
1.987499952,182.9432068,
1.989166617,182.4718781,
1.990833402,182.0611115,
1.992500067,182.9704437,
1.994166732,181.463913,
1.995833278,182.4021759,
1.997499943,185.4383087,
1.999166727,182.8181305,
2.000833273,183.2722626,
2.002500057,183.2446289,
2.004166603,183.7251587,
2.005833387,183.2573395,
2.007500172,180.7839508,
2.009166718,181.9938812,
2.010833263,184.0166473,
2.012500048,182.851593,
2.014166594,183.6884613,
2.015833378,183.363205,
2.017500162,184.1128082,
2.019166708,183.3633728,
2.020833254,183.9039612,
2.022500038,182.7084198,
2.024166822,185.1631775,
2.025833368,184.0331421,
2.027499914,183.8406372,
2.029166698,183.4678192,
2.030833244,185.172348,
2.032500029,183.9025269,
2.034166813,184.3367462,
2.035833359,182.4150543,
2.037499905,184.9042206,
2.039166689,184.544754,
2.040833473,184.5404816,
2.042500019,184.1352539,
2.044166803,183.410553,
2.045833349,184.0165253,
2.047499895,183.5079041,
2.049166679,183.5130768,
2.050833464,183.4794922,
2.05250001,183.7255096,
2.054166555,183.5437164,
2.05583334,183.1114502,
2.057500124,182.8406982,
2.05916667,184.4910431,
2.060833454,183.3665466,
2.0625,184.2192383,
2.064166546,185.3089905,
2.06583333,185.3793488,
2.067500114,183.0077362,
2.06916666,184.6045685,
2.070833445,183.4544373,
2.07249999,184.3743134,
2.074166775,184.1102753,
2.075833321,184.7662048,
2.077500105,184.9152679,
2.079166651,185.2885132,
2.080833197,184.7751923,
2.082499981,183.921463,
2.084166765,183.861084,
2.085833311,184.0063324,
2.087500095,184.6408691,
2.089166641,184.7397003,
2.090833426,184.5250092,
2.092499971,183.7241364,
2.094166756,185.6399994,
2.095833302,183.2948608,
2.097500086,183.2953644,
2.099166632,185.2774963,
2.100833416,183.8477631,
2.102499962,184.1383057,
2.104166746,183.7164764,
2.105833292,184.2645569,
2.107500076,183.5801697,
2.109166622,184.0538635,
2.110833406,185.1390533,
2.112499952,183.6761627,
2.114166737,185.2516937,
2.115833521,184.5465698,
2.117500067,185.2553711,
2.119166613,185.6888885,
2.120833397,184.8636322,
2.122499943,184.7155914,
2.124166727,184.4325714,
2.125833273,185.2357178,
2.127500057,186.2846985,
2.129166603,184.9666901,
2.130833387,184.3878784,
2.132500172,184.1135101,
2.134166718,185.2063293,
2.135833502,183.8223572,
2.137500048,183.9772644,
2.139166832,184.9840546,
2.140833378,185.145874,
2.142500162,183.5943604,
2.144166708,185.4029999,
2.145833254,184.6800842,
2.147500038,185.5768585,
2.149166584,186.0984344,
2.150833368,184.7712708,
2.152500153,183.3490601,
2.154166698,185.2987823,
2.155833483,185.4559174,
2.157500029,185.1810608,
2.159166813,185.269989,
2.160833597,186.5455017,
2.162499905,182.8229065,
2.164166689,185.3140564,
2.165833235,185.5043182,
2.167500019,184.5475311,
2.169166803,183.8835754,
2.170833349,186.0279694,
2.172500134,185.6851654,
2.174166679,185.2954407,
2.175833464,185.1440887,
2.177500248,183.8445282,
2.179166555,185.7133636,
2.18083334,185.0496521,
2.182499886,184.8112488,
2.18416667,184.4695435,
2.185833454,184.2166138,
2.1875,185.9641724,
2.189166784,185.5045776,
2.19083333,185.8948822,
2.192500114,185.6405792,
2.194166899,184.7943115,
2.195833445,184.3636932,
2.19749999,186.5974426,
2.199166536,184.8887024,
2.200833321,185.3372803,
2.202500105,185.9496918,
2.204166651,186.0200806,
2.205833435,184.8194427,
2.207499981,185.0356903,
2.209166765,186.1108704,
2.210833549,185.4485626,
2.212500095,184.9418488,
2.21416688,184.9636536,
2.215833187,184.4425964,
2.217499971,185.4520569,
2.219166756,183.8878326,
2.220833302,185.0902557,
2.222500086,184.9872894,
2.224166632,185.3414001,
2.225833416,186.665802,
2.2275002,184.275589,
2.229166746,185.8077545,
2.23083353,184.8108978,
2.232499838,186.8632813,
2.234166622,185.5202789,
2.235833406,185.7825317,
2.237499952,185.9940643,
2.239166737,185.6721497,
2.240833282,184.4407959,
2.242500067,187.2700958,
2.244166851,187.0876923,
2.245833397,186.5639496,
2.247500181,185.6012421,
2.249166727,184.609314,
2.250833273,186.5367584,
2.252500057,187.3188171,
2.254166603,185.9097595,
2.255833387,186.0995483,
2.257499933,186.5862579,
2.259166718,185.8155365,
2.260833502,185.5176239,
2.262500048,186.5797119,
2.264166832,185.7911835,
2.265833378,184.9035645,
2.267500162,186.1598663,
2.269166708,186.5606079,
2.270833254,185.4728546,
2.272500038,185.8002319,
2.274166584,185.4651642,
2.275833368,186.2927399,
2.277500153,185.5442657,
2.279166698,185.8168335,
2.280833483,186.2429504,
2.282500029,184.6852112,
2.284166813,184.267395,
2.285833597,184.9962311,
2.287499905,185.9939117,
2.289166689,184.7599945,
2.290833235,185.9609985,
2.292500019,184.5404358,
2.294166803,186.801178,
2.295833349,185.2528229,
2.297500134,185.3868408,
2.299166679,187.4723969,
2.300833464,186.0193481,
2.302500248,185.3963013,
2.304166555,187.596817,
2.30583334,184.9516907,
2.307499886,185.337326,
2.30916667,185.885437,
2.310833454,186.1291504,
2.3125,187.131073,
2.314166784,185.8244781,
2.31583333,185.5393982,
2.317500114,185.9455719,
2.319166899,185.7181854,
2.320833445,186.6338043,
2.32249999,185.7976379,
2.324166536,186.66362,
2.325833321,185.0693817,
2.327500105,184.0253143,
2.329166651,186.4727325,
2.330833435,186.4825897,
2.332499981,184.9101715,
2.334166765,186.2941437,
2.335833549,184.6701813,
2.337500095,184.996521,
2.33916688,186.3016205,
2.340833187,186.657959,
2.342499971,185.7163849,
2.344166756,184.6374969,
2.345833302,185.62146,
2.347500086,186.6852417,
2.349166632,185.3084412,
2.350833416,185.6623077,
2.3525002,186.1584778,
2.354166746,186.1952515,
2.35583353,186.9870453,
2.357499838,184.9240875,
2.359166622,186.6117554,
2.360833406,187.3915863,
2.362499952,185.3878021,
2.364166737,185.7977905,
2.365833282,187.3529205,
2.367500067,186.6598969,
2.369166851,186.2434387,
2.370833397,186.7537537,
2.372500181,186.1876984,
2.374166727,186.858963,
2.375833273,186.8140411,
2.377500057,185.6105499,
2.379166603,185.5356903,
2.380833387,186.6176147,
2.382499933,186.5633392,
2.384166718,186.5624847,
2.385833502,186.5098419,
2.387500048,185.9949036,
2.389166832,184.714798,
2.390833378,185.7884674,
2.392500162,187.1442719,
2.394166708,187.2323608,
2.395833254,185.3535156,
2.397500038,186.7389526,
2.399166584,188.557724,
2.400833368,187.0202332,
2.402500153,188.1656799,
2.404166698,186.2926331,
2.405833483,187.3424988,
2.407500029,186.7112579,
2.409166813,187.8573456,
2.410833597,186.6748962,
2.412499905,187.3687592,
2.414166689,186.4602814,
2.415833235,186.923645,
2.417500019,183.9636688,
2.419166803,187.3518677,
2.420833349,187.5770416,
2.422500134,186.6498718,
2.424166679,185.7781219,
2.425833464,187.3728485,
2.427500248,186.7527924,
2.429166555,186.9422455,
2.43083334,187.2028351,
2.432499886,186.764267,
2.43416667,185.305481,
2.435833454,186.630661,
2.4375,186.3054047,
2.439166784,185.1050873,
2.44083333,187.2310486,
2.442500114,187.4616852,
2.444166899,186.1723022,
2.445833445,187.6370239,
2.44749999,186.3342896,
2.449166536,186.7384491,
2.450833321,187.7077484,
2.452500105,186.6372681,
2.454166651,187.0285187,
2.455833435,187.0088196,
2.457499981,186.7696228,
2.459166765,185.9843292,
2.460833549,186.5807648,
2.462500095,186.8558044,
2.46416688,185.8166809,
2.465833187,186.483017,
2.467499971,187.7986603,
2.469166756,186.5305939,
2.470833302,186.9041748,
2.472500086,186.7341766,
2.474166632,185.1935883,
2.475833416,185.7534637,
2.4775002,185.344574,
2.479166746,186.6283875,
2.48083353,186.6253204,
2.482499838,186.5127411,
2.484166622,186.0201263,
2.485833406,185.1468506,
2.487499952,188.7464905,
2.489166737,186.468399,
2.490833282,185.452713,
2.492500067,185.9858704,
2.494166851,187.6240082,
2.495833397,186.3375092,
2.497500181,185.990448,
2.499166727,187.6973419,
2.500833273,186.1509857,
2.502500057,187.6747284,
2.504166603,187.7329254,
2.505833387,187.1969452,
2.507499933,187.4959869,
2.509166718,187.9956512,
2.510833502,185.7547607,
2.512500048,186.2792664,
2.514166832,187.1294556,
2.515833378,187.4546356,
2.517500162,187.3992615,
2.519166708,187.4715729,
2.520833254,187.2873535,
2.522500038,187.1811523,
2.524166584,187.5587158,
2.525833368,187.5316772,
2.527500153,186.9286652,
2.529166698,186.7119446,
2.530833483,185.7052155,
2.532500029,186.2996216,
2.534166813,186.2075043,
2.535833597,186.7345123,
2.537499905,187.702774,
2.539166689,186.55336,
2.540833235,187.5800323,
2.542500019,185.9409943,
2.544166803,186.9374542,
2.545833349,187.4062347,
2.547500134,188.0138702,
2.549166679,187.0531616,
2.550833464,187.722229,
2.552500248,186.0831451,
2.554166555,186.9981537,
2.55583334,185.8844147,
2.557499886,187.1501007,
2.55916667,187.7921906,
2.560833454,187.2850342,
2.5625,186.4751282,
2.564166784,186.8992157,
2.56583333,186.8693695,
2.567500114,186.741745,
2.569166899,186.3150024,
2.570833445,187.3750153,
2.57249999,188.2566681,
2.574166536,187.4922028,
2.575833321,186.4729462,
2.577500105,186.530777,
2.579166651,186.4665375,
2.580833435,185.5993347,
2.582499981,186.5471039,
2.584166765,187.3154907,
2.585833549,188.2620087,
2.587500095,186.3482819,
2.58916688,187.8119354,
2.590833187,187.7013397,
2.592499971,187.3361969,
2.594166756,185.907608,
2.595833302,186.2177734,
2.597500086,186.3049927,
2.599166632,186.3169556,
2.600833416,186.497879,
2.6025002,187.1872406,
2.604166746,187.996994,
2.60583353,187.4083252,
2.607499838,186.8929138,
2.609166622,186.7219238,
2.610833406,186.7999573,
2.612499952,187.073761,
2.614166737,187.5914917,
2.615833282,186.3564606,
2.617500067,188.3310547,
2.619166851,186.743927,
2.620833397,186.1069336,
2.622500181,187.4728394,
2.624166727,187.1052399,
2.625833273,187.6461639,
2.627500057,187.7539978,
2.629166603,186.6474152,
2.630833387,187.864975,
2.632499933,187.3764648,
2.634166718,188.135849,
2.635833502,186.9826508,
2.637500048,187.7799072,
2.639166832,187.5778656,
2.640833378,187.1464996,
2.642500162,186.9203339,
2.644166708,187.3471832,
2.645833254,188.0589752,
2.647500038,187.6354218,
2.649166584,186.9002075,
2.650833368,187.1987915,
2.652500153,186.7255859,
2.654166698,189.5798187,
2.655833483,188.0912323,
2.657500029,186.8376923,
2.659166813,186.6101837,
2.660833597,187.1660767,
2.662499905,188.1072388,
2.664166689,187.2453308,
2.665833235,187.3035278,
2.667500019,187.7095642,
2.669166803,187.397049,
2.670833349,187.3553162,
2.672500134,187.4557953,
2.674166679,187.5197906,
2.675833464,187.0764313,
2.677500248,186.875824,
2.679166555,187.9763947,
2.68083334,187.4150391,
2.682499886,187.4000092,
2.68416667,187.1372833,
2.685833454,187.1842957,
2.6875,185.795105,
2.689166784,188.1325226,
2.69083333,187.5809631,
2.692500114,186.2982178,
2.694166899,188.3678436,
2.695833445,187.0886536,
2.69749999,187.5701904,
2.699166536,187.6118622,
2.700833321,186.7315216,
2.702500105,186.2678223,
2.704166651,187.1939392,
2.705833435,185.8860474,
2.707499981,187.765976,
2.709166765,187.2001495,
2.710833549,187.6560059,
2.712500095,187.8013458,
2.71416688,188.5930176,
2.715833187,187.3762054,
2.717499971,187.4438019,
2.719166756,187.805542,
2.720833302,187.7993469,
2.722500086,188.9428101,
2.724166632,187.1342621,
2.725833416,187.2140656,
2.7275002,187.2928619,
2.729166746,188.4329529,
2.73083353,186.6337585,
2.732499838,186.8312683,
2.734166622,188.7303162,
2.735833406,187.7854767,
2.737499952,187.0922089,
2.739166737,187.5599365,
2.740833282,187.9490814,
2.742500067,187.5176086,
2.744166851,187.681015,
2.745833397,189.6703339,
2.747500181,188.075882,
2.749166727,187.8324432,
2.750833273,188.8640594,
2.752500057,187.2898102,
2.754166603,187.1740723,
2.755833387,187.9520721,
2.757499933,187.9099731,
2.759166718,187.859436,
2.760833502,187.1006165,
2.762500048,187.5699463,
2.764166832,187.1932831,
2.765833378,187.5141144,
2.767500162,186.4444885,
2.769166708,188.2779388,
2.770833254,188.9346313,
2.772500038,187.3450012,
2.774166584,187.2343903,
2.775833368,187.8371582,
2.777500153,187.9501648,
2.779166698,188.9436951,
2.780833483,186.8492584,
2.782500029,186.465744,
2.784166813,185.6899567,
2.785833597,186.8455353,
2.787499905,187.0123749,
2.789166689,186.8480377,
2.790833235,188.4505005,
2.792500019,187.4155426,
2.794166803,187.7266846,
2.795833349,186.5814514,
2.797500134,187.2913971,
2.799166679,188.1707611,
2.800833464,186.7449036,
2.802500248,187.0766754,
2.804166555,187.2667999,
2.80583334,187.5895996,
2.807499886,187.8348846,
2.80916667,188.588913,
2.810833454,188.1013794,
2.8125,188.1172028,
2.814166784,187.1341553,
2.81583333,188.639267,
2.817500114,186.6999207,
2.819166899,188.4955292,
2.820833445,188.1482239,
2.82249999,187.2499237,
2.824166536,188.9128113,
2.825833321,188.1139984,
2.827500105,188.583786,
2.829166651,186.7652435,
2.830833435,187.9151611,
2.832499981,186.6869354,
2.834166765,186.7649841,
2.835833549,188.0536957,
2.837500095,187.8986664,
2.83916688,188.2323303,
2.840833187,188.0037231,
2.842499971,187.5719299,
2.844166756,188.180191,
2.845833302,188.1199341,
2.847500086,187.9372559,
2.849166632,187.6897736,
2.850833416,187.1412964,
2.8525002,186.1404419,
2.854166746,188.7307739,
2.85583353,188.1316223,
2.857499838,187.8475952,
2.859166622,187.1690216,
2.860833406,188.8460846,
2.862499952,188.420517,
2.864166737,188.0607605,
2.865833282,186.7610779,
2.867500067,188.8130951,
2.869166851,187.9224701,
2.870833397,189.0324097,
2.872500181,187.2888336,
2.874166727,187.4036865,
2.875833273,187.6164856,
2.877500057,187.8713837,
2.879166603,187.2074585,
2.880833387,187.5906372,
2.882499933,188.337738,
2.884166718,188.4002991,
2.885833502,187.9850159,
2.887500048,188.8231506,
2.889166832,189.0743103,
2.890833378,186.90625,
2.892500162,187.779129,
2.894166708,188.4955139,
2.895833254,189.7613983,
2.897500038,187.8312531,
2.899166584,186.6340332,
2.900833368,188.8576202,
2.902500153,187.1083527,
2.904166698,188.7751465,
2.905833483,186.8272858,
2.907500029,186.0189819,
2.909166813,188.1339417,
2.910833597,188.6748047,
2.912499905,186.9351349,
2.914166689,188.8732147,
2.915833235,188.2017365,
2.917500019,188.4473724,
2.919166803,187.5797424,
2.920833349,187.5908356,
2.922500134,187.9494781,
2.924166679,186.9493561,
2.925833464,188.3380432,
2.927500248,189.0273438,
2.929166555,187.6486816,
2.93083334,187.4385986,
2.932499886,186.8693695,
2.93416667,187.6350403,
2.935833454,188.5552673,
2.9375,188.4008789,
2.939166784,189.0938263,
2.94083333,187.896759,
2.942500114,188.9338226,
2.944166899,189.9009705,
2.945833445,188.2155609,
2.94749999,188.5856476,
2.949166536,188.559967,
2.950833321,187.6991577,
2.952500105,187.9808502,
2.954166651,186.6536407,
2.955833435,187.5650482,
2.957499981,187.1986084,
2.959166765,187.212738,
2.960833549,189.0013733,
2.962500095,187.1758575,
2.96416688,187.129303,
2.965833187,188.8175354,
2.967499971,187.7442322,
2.969166756,186.9659119,
2.970833302,189.1058044,
2.972500086,187.8115234,
2.974166632,188.9701385,
2.975833416,187.894516,
2.9775002,189.022644,
2.979166746,188.0036011,
2.98083353,188.7621918,
2.982499838,188.5913239,
2.984166622,190.1904907,
2.985833406,188.2216492,
2.987499952,188.2890472,
2.989166737,189.001297,
2.990833282,188.1940765,
2.992500067,186.9345551,
2.994166851,188.3313904,
2.995833397,188.626709,
2.997500181,188.0050354,
2.999166727,187.979126,
3.000833273,188.0171051,
3.002500057,188.7640533,
3.004166603,188.4553223,
3.005833387,188.8728485,
3.007499933,186.3776093,
3.009166718,188.1739197,
3.010833502,188.4438324,
3.012500048,188.3186951,
3.014166832,188.3377838,
3.015833378,188.2168732,
3.017500162,187.9116058,
3.019166708,189.4120483,
3.020833254,188.7751312,
3.022500038,187.6976929,
3.024166584,187.9186707,
3.025833368,188.15065,
3.027500153,188.7296295,
3.029166698,188.0393982,
3.030833483,188.2788239,
3.032500029,188.0784607,
3.034166813,188.0627899,
3.035833597,188.2949066,
3.037499905,188.444458,
3.039166689,189.4877167,
3.040833235,189.1248016,
3.042500019,187.599823,
3.044166803,187.4428101,
3.045833349,188.3487396,
3.047500134,189.241806,
3.049166679,187.9918213,
3.050833464,187.9869995,
3.052500248,187.7598419,
3.054166555,188.019104,
3.05583334,187.766037,
3.057499886,187.2834778,
3.05916667,187.5746002,
3.060833454,188.6187439,
3.0625,188.9635925,
3.064166784,187.5523224,
3.06583333,188.0857697,
3.067500114,187.7510376,
3.069166899,187.9297028,
3.070833445,188.6334381,
3.07249999,187.9074097,
3.074166536,187.8955688,
3.075833321,189.29039,
3.077500105,187.9942017,
3.079166651,188.309494,
3.080833435,188.1133728,
3.082499981,188.0528107,
3.084166765,187.5387115,
3.085833549,188.7712402,
3.087500095,188.7580719,
3.08916688,187.4244232,
3.090833187,186.8449554,
3.092499971,188.1215057,
3.094166756,188.3757935,
3.095833302,188.1016693,
3.097500086,188.59935,
3.099166632,188.0630035,
3.100833416,188.4433594,
3.1025002,187.5981598,
3.104166746,188.0871429,
3.10583353,188.1240692,
3.107499838,187.8860779,
3.109166622,187.2465668,
3.110833406,188.0057068,
3.112499952,188.2637482,
3.114166737,187.1242828,
3.115833282,187.8543854,
3.117500067,188.2420502,
3.119166851,188.7371979,
3.120833397,187.5916595,
3.122500181,186.8241425,
3.124166727,186.9867249,
3.125833273,188.0317993,
3.127500057,187.3092957,
3.129166603,187.914032,
3.130833387,188.3506317,
3.132499933,187.5203552,
3.134166718,188.1641083,
3.135833502,188.0860596,
3.137500048,187.92659,
3.139166832,187.2608185,
3.140833378,188.2689514,
3.142500162,188.3804932,
3.144166708,188.0717468,
3.145833254,189.1531677,
3.147500038,188.2670441,
3.149166584,187.3542328,
3.150833368,187.8732605,
3.152500153,188.7102966,
3.154166698,188.0904541,
3.155833483,188.7287598,
3.157500029,189.0937347,
3.159166813,187.7281189,
3.160833597,189.7125397,
3.162499905,188.2928009,
3.164166689,187.169281,
3.165833235,187.9976349,
3.167500019,188.6926422,
3.169166803,187.9640961,
3.170833349,189.4361267,
3.172500134,188.9882965,
3.174166679,188.3105164,
3.175833464,187.7331085,
3.177500248,188.246933,
3.179166555,187.6554718,
3.18083334,187.3235931,
3.182499886,188.2010803,
3.18416667,187.7546997,
3.185833454,187.7640839,
3.1875,188.1631165,
3.189166784,187.8019867,
3.19083333,186.6442261,
3.192500114,187.7840729,
3.194166899,189.1143951,
3.195833445,189.2510071,
3.19749999,188.547287,
3.199166536,188.7653046,
3.200833321,188.5020447,
3.202500105,187.7334137,
3.204166651,189.4177551,
3.205833435,188.6532898,
3.207499981,187.9796753,
3.209166765,188.2210388,
3.210833549,188.6933746,
3.212500095,188.0170441,
3.21416688,188.2020416,
3.215833187,187.9131012,
3.217499971,188.2826691,
3.219166756,189.7349396,
3.220833302,188.8026581,
3.222500086,189.5755768,
3.224166632,188.314743,
3.225833416,186.5485687,
3.2275002,188.8796692,
3.229166746,187.7805481,
3.23083353,189.4015198,
3.232499838,188.7783203,
3.234166622,188.1313782,
3.235833406,189.0936737,
3.237499952,187.9616699,
3.239166737,187.6234436,
3.240833282,188.4443359,
3.242500067,188.2451477,
3.244166851,188.8947906,
3.245833397,187.9156189,
3.247500181,188.0740204,
3.249166727,188.4844971,
3.250833273,188.2444,
3.252500057,190.5033722,
3.254166603,188.3631897,
3.255833387,187.9637756,
3.257499933,187.0048065,
3.259166718,188.6521606,
3.260833502,188.3747101,
3.262500048,188.057724,
3.264166832,188.9769135,
3.265833378,188.4775696,
3.267500162,187.5333099,
3.269166708,186.9975586,
3.270833254,188.4187317,
3.272500038,187.6166229,
3.274166584,188.6512299,
3.275833368,189.0268402,
3.277500153,186.936554,
3.279166698,188.3202209,
3.280833483,187.9303436,
3.282500029,188.5421448,
3.284166813,189.0061951,
3.285833597,188.0895233,
3.287499905,187.5600128,
3.289166689,189.5052795,
3.290833235,188.8576965,
3.292500019,188.5858307,
3.294166803,188.8278351,
3.295833349,188.4551392,
3.297500134,188.1871185,
3.299166679,188.2455902,
3.300833464,188.4950104,
3.302500248,189.1312256,
3.304166555,189.5436249,
3.30583334,187.3013306,
3.307499886,188.4874573,
3.30916667,188.3624878,
3.310833454,187.9332581,
3.3125,187.3925934,
3.314166784,188.1180115,
3.31583333,187.7229919,
3.317500114,187.4848175,
3.319166899,189.0269928,
3.320833445,189.1240082,
3.32249999,186.2281342,
3.324166536,187.5635986,
3.325833321,189.1250763,
3.327500105,189.4385529,
3.329166651,187.9120026,
3.330833435,189.5947571,
3.332499981,187.635498,
3.334166765,188.6621857,
3.335833549,186.9867859,
3.337500095,187.6909027,
3.33916688,189.4409943,
3.340833187,187.287384,
3.342499971,188.6374054,
3.344166756,187.6698608,
3.345833302,188.0765686,
3.347500086,189.1796265,
3.349166632,188.7532806,
3.350833416,188.1562195,
3.3525002,187.2075653,
3.354166746,188.8522186,
3.35583353,187.232132,
3.357499838,188.1509094,
3.359166622,187.407135,
3.360833406,189.3458099,
3.362499952,187.743576,
3.364166737,188.2810669,
3.365833282,189.0193787,
3.367500067,188.1383667,
3.369166851,187.513031,
3.370833397,186.8822632,
3.372500181,187.8885498,
3.374166727,187.7537231,
3.375833273,188.2194824,
3.377500057,187.5415344,
3.379166603,188.4484863,
3.380833387,188.6914673,
3.382499933,188.1375122,
3.384166718,188.3011017,
3.385833502,189.6639252,
3.387500048,189.9966736,
3.389166832,187.8605042,
3.390833378,188.2969513,
3.392500162,187.7035065,
3.394166708,187.7961884,
3.395833254,187.3151245,
3.397500038,188.0957031,
3.399166584,189.2976532,
3.400833368,187.1073303,
3.402500153,188.3386993,
3.404166698,186.8648071,
3.405833483,187.8869629,
3.407500029,187.3704834,
3.409166813,188.2348785,
3.410833597,187.7704315,
3.412499905,187.9849243,
3.414166689,188.2418976,
3.415833235,188.7129059,
3.417500019,189.2178955,
3.419166803,189.473175,
3.420833349,188.8983307,
3.422500134,188.7943115,
3.424166679,188.9646912,
3.425833464,188.7324371,
3.427500248,189.5502319,
3.429166555,190.2541504,
3.43083334,189.0252228,
3.432499886,190.0332489,
3.43416667,189.7910767,
3.435833454,188.012207,
3.4375,189.3955231,
3.439166784,189.4633484,
3.44083333,187.8013458,
3.442500114,188.8252258,
3.444166899,188.7034912,
3.445833445,188.3781586,
3.44749999,187.5007477,
3.449166536,188.3265533,
3.450833321,189.1802979,
3.452500105,186.9571686,
3.454166651,188.0165558,
3.455833435,189.4947815,
3.457499981,187.333313,
3.459166765,188.5719757,
3.460833549,187.8509521,
3.462500095,188.0914459,
3.46416688,188.1646271,
3.465833187,188.4494629,
3.467499971,188.4152069,
3.469166756,187.8421173,
3.470833302,189.4546661,
3.472500086,188.6316223,
3.474166632,188.5569,
3.475833416,188.0819702,
3.4775002,187.278656,
3.479166746,188.1388702,
3.48083353,187.9103699,
3.482499838,186.8538513,
3.484166622,189.9628296,
3.485833406,187.9347839,
3.487499952,188.5814819,
3.489166737,189.3764496,
3.490833282,188.685379,
3.492500067,188.5117493,
3.494166851,188.818512,
3.495833397,189.4969635,
3.497500181,188.9999084,
3.499166727,189.3143616,
3.500833273,186.6356201,
3.502500057,188.4837341,
3.504166603,187.3884888,
3.505833387,187.1269073,
3.507499933,189.3362579,
3.509166718,188.4363403,
3.510833502,188.2602081,
3.512500048,187.9457703,
3.514166832,187.686554,
3.515833378,187.8655548,
3.517500162,188.2949829,
3.519166708,188.2265167,
3.520833254,189.4450531,
3.522500038,188.1316986,
3.524166584,189.6560059,
3.525833368,187.8702087,
3.527500153,189.4474487,
3.529166698,189.7920837,
3.530833483,188.4136963,
3.532500029,189.3154907,
3.534166813,189.0202332,
3.535833597,189.0419769,
3.537499905,187.5414581,
3.539166689,187.7171478,
3.540833235,189.7804565,
3.542500019,189.3503418,
3.544166803,188.7886353,
3.545833349,189.8267517,
3.547500134,188.1481781,
3.549166679,188.3805237,
3.550833464,188.3311768,
3.552500248,189.4518127,
3.554166555,187.2787628,
3.55583334,188.8177643,
3.557499886,189.8015747,
3.55916667,187.8173523,
3.560833454,188.6229858,
3.5625,188.1622925,
3.564166784,188.8368073,
3.56583333,188.4342651,
3.567500114,189.8508301,
3.569166899,187.7241516,
3.570833445,188.2916412,
3.57249999,188.4627991,
3.574166536,189.3236084,
3.575833321,188.7318878,
3.577500105,188.6067505,
3.579166651,189.7688904,
3.580833435,185.2433929,
3.582499981,187.7472534,
3.584166765,187.7739105,
3.585833549,187.6112366,
3.587500095,189.1705627,
3.58916688,188.5117188,
3.590833187,187.8300171,
3.592499971,188.0407562,
3.594166756,187.5781403,
3.595833302,189.264328,
3.597500086,187.8142853,
3.599166632,187.2468719,
3.600833416,190.1393127,
3.6025002,188.0806732,
3.604166746,188.527298,
3.60583353,188.3466644,
3.607499838,188.6598053,
3.609166622,188.4170074,
3.610833406,189.3005066,
3.612499952,187.5422821,
3.614166737,189.6656799,
3.615833282,187.4172211,
3.617500067,187.7726898,
3.619166851,187.5805817,
3.620833397,189.5727692,
3.622500181,187.3314209,
3.624166727,188.8557434,
3.625833273,188.923111,
3.627500057,188.815094,
3.629166603,188.2801361,
3.630833387,188.4433441,
3.632499933,188.4342194,
3.634166718,188.6298065,
3.635833502,188.1580505,
3.637500048,189.9314423,
3.639166832,188.3328247,
3.640833378,188.1561584,
3.642500162,188.2756805,
3.644166708,188.0171661,
3.645833254,188.5112305,
3.647500038,189.4340057,
3.649166584,188.9932251,
3.650833368,188.4798737,
3.652500153,188.5476227,
3.654166698,188.2295685,
3.655833483,188.7325592,
3.657500029,189.560257,
3.659166813,188.9463196,
3.660833597,188.871521,
3.662499905,188.7663422,
3.664166689,188.7205963,
3.665833235,188.5833282,
3.667500019,189.4995575,
3.669166803,188.8766022,
3.670833349,188.6017456,
3.672500134,188.619812,
3.674166679,188.945694,
3.675833464,188.1758575,
3.677500248,188.464798,
3.679166555,188.7930298,
3.68083334,189.8597565,
3.682499886,187.5601959,
3.68416667,187.6821594,
3.685833454,188.5077972,
3.6875,189.9103088,
3.689166784,188.8337708,
3.69083333,188.1925964,
3.692500114,188.0614319,
3.694166899,189.5513916,
3.695833445,189.796402,
3.69749999,189.0426636,
3.699166536,189.2606659,
3.700833321,187.7329102,
3.702500105,188.3893738,
3.704166651,188.9672852,
3.705833435,189.0294342,
3.707499981,188.5313873,
3.709166765,189.6757202,
3.710833549,188.9015656,
3.712500095,189.740448,
3.71416688,188.8108978,
3.715833187,187.9573822,
3.717499971,187.4095001,
3.719166756,188.2271576,
3.720833302,187.6330872,
3.722500086,188.3154297,
3.724166632,188.9447937,
3.725833416,189.2215118,
3.7275002,187.7523346,
3.729166746,188.1557159,
3.73083353,187.8854523,
3.732499838,189.3291016,
3.734166622,189.3439941,
3.735833406,189.4099731,
3.737499952,189.4205475,
3.739166737,188.8289337,
3.740833282,187.7195435,
3.742500067,188.0536957,
3.744166851,188.519928,
3.745833397,188.2794495,
3.747500181,190.1062622,
3.749166727,188.4400635,
3.750833273,188.7032776,
3.752500057,189.1013794,
3.754166603,187.3726501,
3.755833387,189.0954132,

