1,,
Time (min),Intensity (a.u.),
0.0008333333535,21.2866745,
0.002500000177,21.26363182,
0.004166666884,20.88855362,
0.005833333358,21.36921692,
0.007500000298,20.99188232,
0.009166667238,21.27144814,
0.01083333418,21.53921127,
0.01250000019,21.32228088,
0.01416666713,21.48123169,
0.01583333313,21.94205475,
0.01750000194,21.11505127,
0.01916666701,21.05233002,
0.02083333395,21.00678253,
0.02250000089,21.51936531,
0.02416666783,21.35443497,
0.02583333477,21.55907059,
0.02749999985,21.23374367,
0.02916666679,21.18813324,
0.03083333373,21.12856483,
0.03250000253,21.29629707,
0.03416666761,21.58927155,
0.03583333641,21.07361603,
0.03750000149,21.4002037,
0.03916667029,20.88033676,
0.04083333537,21.26329041,
0.04250000045,21.3072319,
0.04416666925,21.38349533,
0.04583333433,21.03355789,
0.04750000313,21.52824783,
0.04916666821,21.09797096,
0.05083333328,20.94948769,
0.05250000209,21.0311985,
0.05416666716,21.32507133,
0.05583333597,21.40818977,
0.05750000104,21.42478561,
0.05916666612,21.05142593,
0.06083333492,21.09634209,
0.0625,21.32034111,
0.06416667253,21.55451012,
0.0658333376,21.70617867,
0.06750000268,21.33341026,
0.06916666776,21.23023224,
0.07083333284,21.22421455,
0.07249999791,21.50003433,
0.07416667044,21.25724792,
0.07583333552,21.30157661,
0.0775000006,21.03634644,
0.07916666567,21.19246483,
0.08083333075,20.95129967,
0.08250000328,21.27708054,
0.08416666836,21.37568855,
0.08583333343,21.45228958,
0.08749999851,21.2287941,
0.08916666359,21.50400352,
0.09083333611,21.42528343,
0.09250000119,20.97250366,
0.09416666627,21.31839561,
0.09583333135,21.12028313,
0.09749999642,21.21325684,
0.09916666895,21.28259087,
0.100833334,21.25709724,
0.1024999991,20.90778542,
0.1041666642,21.59980774,
0.1058333293,21.77610588,
0.1075000018,21.27832794,
0.1091666669,21.30155373,
0.1108333319,20.88369179,
0.112499997,20.86352348,
0.1141666621,21.48355675,
0.1158333346,21.38930893,
0.1174999997,21.4227829,
0.1191666648,21.24177361,
0.1208333299,21.21033859,
0.1224999949,20.8365612,
0.1241666749,21.30434227,
0.1258333325,21.35157204,
0.1274999976,21.12506485,
0.1291666627,21.45877457,
0.1308333278,21.24030876,
0.1325000077,21.06637383,
0.1341666728,20.90201378,
0.1358333379,21.63485146,
0.137500003,21.34617805,
0.1391666681,21.39212227,
0.1408333331,21.08402061,
0.1424999982,21.14309311,
0.1441666782,21.30913734,
0.1458333284,21.33613205,
0.1475000083,21.26158714,
0.1491666585,21.30079651,
0.1508333385,21.21421432,
0.1525000036,21.27301788,
0.1541666687,21.14042473,
0.1558333337,21.30934715,
0.1574999988,21.18415642,
0.1591666639,21.28965569,
0.1608333439,21.50768089,
0.162499994,21.10846901,
0.164166674,21.30354881,
0.1658333242,21.61354446,
0.1675000042,21.57728386,
0.1691666692,21.20355415,
0.1708333343,21.14615631,
0.1724999994,21.10722923,
0.1741666645,21.19474983,
0.1758333296,21.59022331,
0.1775000095,21.60207176,
0.1791666597,21.19459343,
0.1808333397,21.03667831,
0.1824999899,21.34736633,
0.1841666698,21.59223175,
0.1858333498,21.12357712,
0.1875,21.298563,
0.18916668,21.33472824,
0.1908333302,20.7698288,
0.1925000101,21.48062706,
0.1941666752,21.27204704,
0.1958333403,21.21107101,
0.1975000054,21.17959404,
0.1991666704,21.42996216,
0.2008333355,20.96619225,
0.2025000155,21.81588936,
0.2041666657,21.20067215,
0.2058333457,21.16178894,
0.2074999958,21.7107296,
0.2091666758,21.2520237,
0.2108333409,21.19218445,
0.212500006,20.97361374,
0.214166671,21.11680222,
0.2158333361,21.44680786,
0.2175000012,21.21761513,
0.2191666812,21.22526169,
0.2208333313,20.81635284,
0.2225000113,21.20942116,
0.2241666615,21.54133415,
0.2258333415,21.10488129,
0.2275000066,21.33345985,
0.2291666716,21.64512253,
0.2308333367,21.31223869,
0.2325000018,21.67522812,
0.2341666669,21.1068573,
0.2358333468,21.17404366,
0.237499997,20.92672157,
0.239166677,21.06860161,
0.2408333272,20.94620323,
0.2425000072,21.54578018,
0.2441666722,21.35229301,
0.2458333373,21.51141167,
0.2475000024,21.07339478,
0.2491666675,21.27150536,
0.2508333325,21.16316414,
0.2524999976,20.96149445,
0.2541666627,21.47493362,
0.2558333278,21.34701729,
0.2574999928,21.34777832,
0.2591666579,21.13488197,
0.2608333528,21.43664742,
0.2624999881,21.2891674,
0.264166683,21.21888351,
0.2658333182,21.3205986,
0.2675000131,21.02418709,
0.2691666484,21.23059273,
0.2708333433,21.30273819,
0.2725000083,21.39726639,
0.2741666734,21.45362854,
0.2758333385,21.18119049,
0.2775000036,21.55273056,
0.2791666687,21.4470787,
0.2808333337,21.18181419,
0.2824999988,21.42282486,
0.2841666937,21.06758499,
0.285833329,21.01630211,
0.287499994,21.4638195,
0.2891666591,21.30511093,
0.290833354,21.26396561,
0.2925000191,21.29746246,
0.2941666543,21.24655724,
0.2958333194,21.02002907,
0.2975000143,21.0871315,
0.2991666794,21.06656265,
0.3008333445,21.12415314,
0.3024999797,21.11948204,
0.3041666746,21.56188965,
0.3058333397,21.1188736,
0.3075000048,21.22844124,
0.3091666996,21.11932945,
0.3108333349,21.31204224,
0.3125,21.21450233,
0.3141666651,20.91726303,
0.31583336,21.68082237,
0.317500025,21.61359406,
0.3191666603,21.46709251,
0.3208333254,21.01442528,
0.3225000203,21.54867554,
0.3241666853,21.32511711,
0.3258333504,21.4907608,
0.3274999857,21.25286674,
0.3291666806,21.10411263,
0.3308333457,20.85035133,
0.3325000107,21.00327492,
0.3341666758,21.35732841,
0.3358333409,21.23513985,
0.337500006,21.24524307,
0.339166671,21.40446281,
0.3408333361,21.26536942,
0.342500031,21.03886032,
0.3441666663,20.9596138,
0.3458333313,21.30245972,
0.3474999964,21.44231415,
0.3491666913,21.35004997,
0.3508333564,21.4773941,
0.3524999917,21.35072708,
0.3541666567,21.06237793,
0.3558333516,21.00811386,
0.3575000167,21.35974503,
0.3591666818,20.92297173,
0.360833317,21.24712563,
0.3625000119,21.67384148,
0.364166677,20.8897419,
0.3658333421,20.81863594,
0.3675000072,21.04061127,
0.3691666722,21.5604229,
0.3708333373,21.38800812,
0.3725000024,21.17616844,
0.3741666675,21.47115898,
0.3758333623,21.11746025,
0.3774999976,21.67626572,
0.3791666627,21.07691765,
0.3808333278,21.3206501,
0.3825000226,20.9270401,
0.3841666877,21.02713776,
0.385833323,21.05176926,
0.3874999881,21.1434288,
0.389166683,21.02632141,
0.390833348,21.21063805,
0.3925000131,20.90085793,
0.3941666484,21.18322563,
0.3958333433,21.319561,
0.3975000083,21.43925858,
0.3991666734,21.13446426,
0.4008333385,20.68430328,
0.4025000036,21.37752724,
0.4041666687,21.77243423,
0.4058333337,21.19794273,
0.4074999988,21.51168251,
0.4091666937,20.87498093,
0.410833329,21.21446991,
0.412499994,21.48871231,
0.4141666591,20.75831032,
0.415833354,20.90714836,
0.4175000191,21.52466965,
0.4191666543,21.05838585,
0.4208333194,20.79537582,
0.4225000143,20.96100426,
0.4241666794,21.07748604,
0.4258333445,21.14911461,
0.4274999797,20.97659302,
0.4291666746,21.55791855,
0.4308333397,21.16518593,
0.4325000048,21.36821747,
0.4341666996,20.95223808,
0.4358333349,21.05826569,
0.4375,21.66802979,
0.4391666651,21.45453453,
0.44083336,21.15710068,
0.442500025,21.18686485,
0.4441666603,21.36620712,
0.4458333254,21.39722443,
0.4475000203,21.5392437,
0.4491666853,21.01260567,
0.4508333504,21.07436371,
0.4524999857,21.37925911,
0.4541666806,21.00940514,
0.4558333457,21.14072227,
0.4575000107,20.79242897,
0.4591666758,20.94228745,
0.4608333409,21.44169235,
0.462500006,21.23622131,
0.464166671,20.85690498,
0.4658333361,20.87513161,
0.467500031,21.28878403,
0.4691666663,21.85569382,
0.4708333313,20.90410423,
0.4724999964,21.32149887,
0.4741666913,21.29745865,
0.4758333564,20.96305275,
0.4774999917,21.57628441,
0.4791666567,21.34502029,
0.4808333516,21.4827919,
0.4825000167,21.48526382,
0.4841666818,20.96208763,
0.485833317,21.32402611,
0.4875000119,20.9919014,
0.489166677,20.77882957,
0.4908333421,20.91943741,
0.4925000072,21.13593864,
0.4941666722,20.94909286,
0.4958333373,20.69073105,
0.4975000024,21.09270287,
0.4991666675,21.31060028,
0.5008333325,21.07547951,
0.5024999976,21.19654274,
0.5041666627,20.76327705,
0.5058333278,21.7312088,
0.5074999928,21.51747513,
0.5091666579,21.25504303,
0.510833323,21.04489136,
0.5124999881,21.4154911,
0.5141666532,21.23685265,
0.5158333182,21.18725586,
0.5175000429,20.79785347,
0.5191666484,21.77257347,
0.5208333135,20.85671043,
0.5224999785,21.44470787,
0.5241667032,21.5036087,
0.5258333683,21.31122208,
0.5274999738,21.55583382,
0.5291666389,21.42568588,
0.5308333635,21.11370468,
0.5325000286,21.49198151,
0.5341666341,20.94179726,
0.5358333588,21.3088913,
0.5375000238,21.18096924,
0.5391666889,20.99444962,
0.540833354,21.3350544,
0.5424999595,21.27464104,
0.5441666842,21.65036392,
0.5458333492,20.89913368,
0.5475000143,21.08376312,
0.5491666794,21.14656258,
0.5508333445,21.5158844,
0.5525000095,21.23735619,
0.5541666746,21.05311394,
0.5558333993,21.29097557,
0.5575000048,20.9965477,
0.5591666698,20.98715782,
0.5608333349,20.99707222,
0.5625,20.7530899,
0.5641667247,21.50787163,
0.5658333302,21.28812027,
0.5674999952,21.15007401,
0.5691667199,20.93910789,
0.5708333254,21.29219437,
0.5725000501,21.26876259,
0.5741666555,21.16312027,
0.5758333206,21.03198051,
0.5775000453,21.0422821,
0.5791666508,21.18873024,
0.5808333755,21.2357254,
0.5825000405,21.05545235,
0.584166646,21.8336544,
0.5858333707,21.25832558,
0.5874999762,20.98520279,
0.5891667008,21.00515556,
0.5908333659,20.99498749,
0.5924999714,21.44133568,
0.5941666961,20.78931999,
0.5958333611,21.41625404,
0.5975000262,21.24711418,
0.5991666913,21.52798843,
0.6008332968,21.33989143,
0.6025000215,21.32203674,
0.6041666865,21.18009186,
0.6058333516,21.13061714,
0.6075000167,21.35202217,
0.6091666818,21.51487732,
0.6108333468,21.3192482,
0.6125000119,21.20100975,
0.614166677,21.44726563,
0.6158333421,21.04949951,
0.6175000072,21.12313461,
0.6191666722,20.87881279,
0.6208333373,20.82251167,
0.622500062,21.53258514,
0.6241666675,20.91826057,
0.6258333325,21.02223778,
0.6274999976,21.63873863,
0.6291666627,21.05012894,
0.6308333874,21.20057106,
0.6324999928,21.12464333,
0.6341666579,21.16706276,
0.6358333826,21.45214653,
0.6374999881,21.22831917,
0.6391667128,21.08821297,
0.6408333182,20.68695068,
0.6424999833,21.15144348,
0.644166708,21.37550926,
0.6458333135,21.15523911,
0.6475000381,21.50412369,
0.6491667032,21.10720634,
0.6508333087,21.21681786,
0.6525000334,21.17774582,
0.6541666389,21.08857918,
0.6558333635,21.04366875,
0.6575000286,21.27696991,
0.6591666341,21.1662674,
0.6608333588,21.27709007,
0.6625000238,21.16068077,
0.6641666889,21.42739677,
0.665833354,21.33835983,
0.6674999595,21.18121338,
0.6691666842,21.45879936,
0.6708333492,21.12295341,
0.6725000143,20.93215752,
0.6741666794,21.46411705,
0.6758333445,20.90107155,
0.6775000095,21.20270157,
0.6791666746,21.01190948,
0.6808333993,20.92064667,
0.6825000048,21.4025898,
0.6841666698,21.35717773,
0.6858333349,21.10497284,
0.6875,21.16660118,
0.6891667247,21.33905792,
0.6908333302,21.44336128,
0.6924999952,21.18551445,
0.6941667199,21.24078751,
0.6958333254,21.58071899,
0.6975000501,21.56789207,
0.6991666555,21.23426628,
0.7008333206,21.44612122,
0.7025000453,21.3241539,
0.7041666508,20.94616699,
0.7058333755,21.35905266,
0.7075000405,20.84231186,
0.709166646,20.72596169,
0.7108333707,20.9306221,
0.7124999762,21.17380142,
0.7141667008,21.12721062,
0.7158333659,21.22310066,
0.7174999714,21.45920372,
0.7191666961,21.10624695,
0.7208333611,21.13480377,
0.7225000262,21.59202385,
0.7241666913,21.37277412,
0.7258332968,21.19441605,
0.7275000215,20.91546822,
0.7291666865,21.3669529,
0.7308333516,21.47065544,
0.7325000167,21.36510468,
0.7341666818,21.46201515,
0.7358333468,21.33993721,
0.7375000119,21.37359428,
0.739166677,21.15260506,
0.7408333421,21.15184402,
0.7425000072,20.96999931,
0.7441666722,21.32064056,
0.7458333373,21.46277809,
0.747500062,20.96824265,
0.7491666675,21.19969177,
0.7508333325,20.86279488,
0.7524999976,21.13853455,
0.7541666627,21.16894913,
0.7558333874,21.37596321,
0.7574999928,20.8942337,
0.7591666579,21.1165657,
0.7608333826,21.05842209,
0.7624999881,21.23793983,
0.7641667128,21.32938385,
0.7658333182,21.07386971,
0.7674999833,21.51932335,
0.769166708,21.2450676,
0.7708333135,21.3120594,
0.7725000381,21.33039665,
0.7741667032,21.01211929,
0.7758333087,21.48917198,
0.7775000334,21.17805099,
0.7791666389,21.33087921,
0.7808333635,21.14861679,
0.7825000286,21.36296654,
0.7841666341,21.49221802,
0.7858333588,21.19930077,
0.7875000238,21.02817154,
0.7891666889,20.83027458,
0.790833354,20.84404564,
0.7924999595,21.19538116,
0.7941666842,20.97999573,
0.7958333492,20.95933723,
0.7975000143,21.37220383,
0.7991666794,21.13451004,
0.8008333445,20.8693428,
0.8025000095,21.24837112,
0.8041666746,20.5057106,
0.8058333993,21.14599991,
0.8075000048,21.2784214,
0.8091666698,21.55866241,
0.8108333349,21.39559555,
0.8125,21.17012215,
0.8141667247,21.32981491,
0.8158333302,21.17301369,
0.8174999952,21.23124886,
0.8191667199,21.31145668,
0.8208333254,21.2298069,
0.8225000501,20.94697762,
0.8241666555,20.95926857,
0.8258333206,21.27350807,
0.8275000453,20.94988251,
0.8291666508,21.37352371,
0.8308333755,20.83381653,
0.8325000405,20.81979752,
0.834166646,21.13358116,
0.8358333707,20.98936653,
0.8374999762,21.05036926,
0.8391667008,21.25994873,
0.8408333659,21.55145264,
0.8424999714,21.4625473,
0.8441666961,21.44800568,
0.8458333611,21.32753754,
0.8475000262,21.12394905,
0.8491666913,20.91628265,
0.8508332968,21.25894737,
0.8525000215,21.10814857,
0.8541666865,20.94542885,
0.8558333516,21.29349709,
0.8575000167,21.02962303,
0.8591666818,20.78385925,
0.8608333468,20.75697899,
0.8625000119,21.27263451,
0.864166677,21.29527855,
0.8658333421,20.89261055,
0.8675000072,21.10544014,
0.8691666722,21.61750984,
0.8708333373,21.46492767,
0.872500062,21.44356155,
0.8741666675,21.06034088,
0.8758333325,21.43502808,
0.8774999976,21.24801636,
0.8791666627,21.56797981,
0.8808333874,21.43071747,
0.8824999928,21.25249481,
0.8841666579,21.17699623,
0.8858333826,21.28869438,
0.8874999881,20.70010948,
0.8891667128,21.26973724,
0.8908333182,20.88596344,
0.8924999833,21.41055679,
0.894166708,21.63766479,
0.8958333135,21.09325027,
0.8975000381,21.42582512,
0.8991667032,21.21238327,
0.9008333087,20.92366409,
0.9025000334,21.20102501,
0.9041666389,21.24192429,
0.9058333635,21.03713226,
0.9075000286,20.91293907,
0.9091666341,20.58857727,
0.9108333588,21.59981537,
0.9125000238,21.11930084,
0.9141666889,21.48327446,
0.915833354,21.07284164,
0.9174999595,21.46386719,
0.9191666842,21.44442177,
0.9208333492,21.14915466,
0.9225000143,21.37651253,
0.9241666794,21.23755646,
0.9258333445,20.43107414,
0.9275000095,21.68868828,
0.9291666746,21.09711838,
0.9308333993,21.34831429,
0.9325000048,21.03631592,
0.9341666698,21.06352615,
0.9358333349,21.22330666,
0.9375,21.07739449,
0.9391667247,21.15358925,
0.9408333302,21.1753273,
0.9424999952,21.16386795,
0.9441667199,21.61731148,
0.9458333254,20.98173523,
0.9475000501,21.38568687,
0.9491666555,21.05789185,
0.9508333206,20.8381443,
0.9525000453,21.00425339,
0.9541666508,21.3252449,
0.9558333755,20.84844398,
0.9575000405,20.99635506,
0.959166646,21.49903107,
0.9608333707,20.89642715,
0.9624999762,21.32402039,
0.9641667008,21.62816238,
0.9658333659,20.94173241,
0.9674999714,20.94107437,
0.9691666961,21.2447567,
0.9708333611,20.73033714,
0.9725000262,21.54128456,
0.9741666913,21.50551033,
0.9758332968,21.44920921,
0.9775000215,21.13375854,
0.9791666865,21.54645729,
0.9808333516,21.51168633,
0.9825000167,21.03303719,
0.9841666818,21.1114521,
0.9858333468,21.51716995,
0.9875000119,21.14873886,
0.989166677,21.0204277,
0.9908333421,21.30467796,
0.9925000072,20.93753052,
0.9941666722,20.96689796,
0.9958333373,20.8963604,
0.997500062,20.91311455,
0.9991666675,21.01530647,
1.000833273,21.29422569,
1.002500057,21.35173798,
1.004166722,21.36346054,
1.005833387,21.21055603,
1.007500052,21.15613556,
1.009166598,20.88652039,
1.010833383,21.44129181,
1.012500048,21.03819466,
1.014166713,21.28742599,
1.015833378,20.94886589,
1.017500043,20.88337898,
1.019166708,21.12331772,
1.020833373,21.41826057,
1.022500038,21.06635094,
1.024166703,20.83381844,
1.025833368,21.05725288,
1.027500033,21.36186409,
1.029166698,21.37670135,
1.030833364,21.30205917,
1.032500029,21.1650219,
1.034166694,21.40308571,
1.035833359,21.39883614,
1.037500024,21.13326454,
1.039166689,20.95212173,
1.040833354,21.64564896,
1.042500019,21.40895462,
1.044166684,21.08396149,
1.045833349,20.64884377,
1.047500014,21.53390503,
1.049166679,21.05250931,
1.050833344,21.31497765,
1.05250001,21.36258316,
1.054166675,21.27546883,
1.05583334,21.25160027,
1.057500005,20.94091034,
1.05916667,21.85245323,
1.060833335,20.96715927,
1.0625,21.29119682,
1.064166665,21.44678688,
1.06583333,21.27975655,
1.067499995,21.31760216,
1.06916666,20.94814873,
1.070833325,21.05368996,
1.07249999,21.47218895,
1.074166775,20.88791084,
1.07583344,20.97508621,
1.077499986,21.06278038,
1.079166651,21.1568203,
1.080833316,21.43936729,
1.0825001,21.19174194,
1.084166765,21.41091537,
1.085833311,21.06051064,
1.087499976,20.94113541,
1.089166641,21.64731026,
1.090833426,21.11219978,
1.092500091,21.29151535,
1.094166636,21.13492584,
1.095833302,21.63845825,
1.097499967,21.2857914,
1.099166751,20.91452217,
1.100833416,21.42191696,
1.102500081,20.99757385,
1.104166627,21.10291481,
1.105833292,22.75551987,
1.107500076,22.24273682,
1.109166741,22.27593422,
1.110833406,21.7215786,
1.112499952,22.47566032,
1.114166617,23.5353508,
1.115833402,32.17182922,
1.117500067,30.06718636,
1.119166732,40.38576126,
1.120833278,35.46923447,
1.122499943,37.10844421,
1.124166727,41.92531204,
1.125833392,35.55195999,
1.127500057,40.83220673,
1.129166722,41.84182739,
1.130833268,44.23278046,
1.132500052,45.31200409,
1.134166718,47.67959213,
1.135833383,49.2680397,
1.137500048,51.3628006,
1.139166594,52.85319138,
1.140833378,53.80547333,
1.142500043,56.42824173,
1.144166708,58.36619186,
1.145833373,59.94670486,
1.147499919,62.04045105,
1.149166703,62.95082092,
1.150833368,64.55673218,
1.152500033,66.61753845,
1.154166698,68.01724243,
1.155833364,69.52091217,
1.157500029,70.16829681,
1.159166694,71.21211243,
1.160833359,73.69179535,
1.162500024,75.25173187,
1.164166689,76.06595612,
1.165833354,78.24700165,
1.167500019,79.32706451,
1.169166684,78.74237823,
1.170833349,79.52315521,
1.172500014,82.22718048,
1.174166799,82.33361053,
1.175833344,84.08260345,
1.17750001,85.15192413,
1.179166675,85.88184357,
1.18083334,86.71195221,
1.182500124,87.57202911,
1.18416667,88.64582062,
1.185833335,89.55197906,
1.1875,91.51461792,
1.189166665,92.07012177,
1.190833449,91.87148285,
1.192499995,92.81071472,
1.19416666,95.14584351,
1.195833325,95.16156769,
1.19749999,95.25790405,
1.199166775,96.27037048,
1.20083344,97.54851532,
1.202499986,98.89560699,
1.204166651,99.41036224,
1.205833316,99.86846924,
1.2075001,100.44384,
1.209166765,101.0769424,
1.210833311,101.6219788,
1.212499976,103.0529709,
1.214166641,102.4285812,
1.215833426,104.7526398,
1.217500091,104.224617,
1.219166636,106.1528549,
1.220833302,106.6963501,
1.222499967,107.4359207,
1.224166751,107.1586838,
1.225833416,108.7086487,
1.227500081,108.2969437,
1.229166627,109.9241714,
1.230833292,109.8351059,
1.232500076,110.1883011,
1.234166741,110.4235001,
1.235833406,111.0307388,
1.237499952,112.2205963,
1.239166617,112.5656281,
1.240833402,112.0876236,
1.242500067,113.123558,
1.244166732,113.8474426,
1.245833278,114.66819,
1.247499943,115.171524,
1.249166727,114.8379364,
1.250833392,114.92453,
1.252500057,115.7978363,
1.254166722,116.4695816,
1.255833268,116.8414154,
1.257500052,118.0019379,
1.259166718,119.5023727,
1.260833383,118.1818695,
1.262500048,118.4970703,
1.264166594,120.2852631,
1.265833378,120.1706924,
1.267500043,120.5119705,
1.269166708,120.7134552,
1.270833373,121.3865356,
1.272499919,120.9419403,
1.274166703,122.3401108,
1.275833368,123.696167,
1.277500033,122.433342,
1.279166698,123.5497437,
1.280833364,124.2867508,
1.282500029,124.1436157,
1.284166694,123.8261185,
1.285833359,124.1116028,
1.287500024,125.9152145,
1.289166689,125.9700089,
1.290833354,126.0899124,
1.292500019,125.8232727,
1.294166684,126.6387863,
1.295833349,126.6890793,
1.297500014,127.9023285,
1.299166799,127.9077988,
1.300833344,129.197113,
1.30250001,128.3049316,
1.304166675,129.6180267,
1.30583334,129.776825,
1.307500124,129.2664795,
1.30916667,130.3291931,
1.310833335,131.4726257,
1.3125,130.3889313,
1.314166665,130.8693085,
1.315833449,130.9008331,
1.317499995,130.8708496,
1.31916666,131.5316925,
1.320833325,131.8902588,
1.32249999,131.7501831,
1.324166775,132.3451538,
1.32583344,132.5937347,
1.327499986,132.4062958,
1.329166651,133.53479,
1.330833316,133.2611084,
1.3325001,134.4032593,
1.334166765,134.5545959,
1.335833311,134.6586151,
1.337499976,134.5730896,
1.339166641,134.879715,
1.340833426,135.7671509,
1.342500091,135.0079651,
1.344166636,135.6201019,
1.345833302,134.4156189,
1.347499967,136.2778473,
1.349166751,136.4076233,
1.350833416,136.8627167,
1.352500081,136.3783417,
1.354166627,136.5033722,
1.355833292,137.4931793,
1.357500076,138.8769379,
1.359166741,137.5751038,
1.360833406,138.1706696,
1.362499952,137.653183,
1.364166617,138.4287109,
1.365833402,138.8200531,
1.367500067,137.9827728,
1.369166732,139.9955292,
1.370833278,140.0176392,
1.372499943,140.0458527,
1.374166727,139.4371643,
1.375833392,140.0172729,
1.377500057,139.7733459,
1.379166722,140.3067932,
1.380833268,140.0932617,
1.382500052,140.8685455,
1.384166718,140.6108398,
1.385833383,141.1554565,
1.387500048,141.2697754,
1.389166594,141.3087769,
1.390833378,141.5559845,
1.392500043,140.2225037,
1.394166708,142.3211517,
1.395833373,141.857132,
1.397499919,142.0135345,
1.399166703,142.2834625,
1.400833368,142.4926453,
1.402500033,143.3063507,
1.404166698,143.4672394,
1.405833364,143.1889496,
1.407500029,143.4195557,
1.409166694,143.4091797,
1.410833359,143.148941,
1.412500024,142.8579865,
1.414166689,143.3921204,
1.415833354,144.071579,
1.417500019,144.2637787,
1.419166684,144.5177612,
1.420833349,144.618866,
1.422500014,144.9274597,
1.424166799,145.0603638,
1.425833344,145.3942413,
1.42750001,146.1345673,
1.429166675,146.4440002,
1.43083334,146.3810577,
1.432500124,146.4112091,
1.43416667,145.6471252,
1.435833335,145.4407501,
1.4375,147.1393433,
1.439166665,145.5138702,
1.440833449,145.5117493,
1.442499995,146.6495972,
1.44416666,146.8638916,
1.445833325,147.1478882,
1.44749999,148.299057,
1.449166775,147.6163483,
1.45083344,146.4033661,
1.452499986,147.2936249,
1.454166651,147.2984467,
1.455833316,147.4185486,
1.4575001,147.7700043,
1.459166765,148.83815,
1.460833311,147.4235382,
1.462499976,149.5315094,
1.464166641,149.4538269,
1.465833426,149.1759338,
1.467500091,147.749939,
1.469166636,148.2750397,
1.470833302,149.0137787,
1.472499967,148.1033783,
1.474166751,148.2685547,
1.475833416,149.0531769,
1.477500081,150.2935181,
1.479166627,149.9198456,
1.480833292,150.0903015,
1.482500076,149.2371979,
1.484166741,149.519455,
1.485833406,149.4218292,
1.487499952,150.6700287,
1.489166617,150.0856018,
1.490833402,150.7913971,
1.492500067,150.1013794,
1.494166732,150.2333679,
1.495833278,150.0592651,
1.497499943,151.077774,
1.499166727,151.3789368,
1.500833392,151.7445374,
1.502500057,151.4847717,
1.504166722,150.9497986,
1.505833268,151.5984344,
1.507500052,152.1901703,
1.509166718,151.7393646,
1.510833383,152.3388824,
1.512500048,151.5561523,
1.514166594,153.1864319,
1.515833378,152.9057465,
1.517500043,152.2858734,
1.519166708,152.7276306,
1.520833373,152.1847839,
1.522499919,152.4876556,
1.524166703,151.9253082,
1.525833368,152.3677673,
1.527500033,151.6976929,
1.529166698,153.1013184,
1.530833364,153.9961853,
1.532500029,153.1936035,
1.534166694,151.8470154,
1.535833359,152.5336151,
1.537500024,152.5512085,
1.539166689,153.6301727,
1.540833354,153.1256866,
1.542500019,154.1444855,
1.544166684,153.7716522,
1.545833349,153.4721985,
1.547500014,153.8461609,
1.549166799,154.1938629,
1.550833344,153.6748047,
1.55250001,154.5949402,
1.554166675,154.2666016,
1.55583334,154.5879517,
1.557500124,154.2161865,
1.55916667,154.3936005,
1.560833335,154.0889587,
1.5625,152.9270477,
1.564166665,154.9306488,
1.565833449,155.6275635,
1.567499995,154.6860046,
1.56916666,154.646637,
1.570833325,155.6089783,
1.57249999,154.5957184,
1.574166775,155.382782,
1.57583344,155.3704681,
1.577499986,155.5797272,
1.579166651,156.4260864,
1.580833316,154.8662872,
1.5825001,156.1466217,
1.584166765,155.8978882,
1.585833311,155.5397491,
1.587499976,155.9198151,
1.589166641,155.6971436,
1.590833426,156.4246826,
1.592500091,157.0937195,
1.594166636,156.0806427,
1.595833302,157.037796,
1.597499967,156.4741211,
1.599166751,156.198349,
1.600833416,155.9920502,
1.602500081,155.6092224,
1.604166627,156.065033,
1.605833292,156.8553467,
1.607500076,155.6858978,
1.609166741,156.8450775,
1.610833406,157.1302643,
1.612499952,157.2420349,
1.614166617,157.294281,
1.615833402,157.3755951,
1.617500067,157.4333954,
1.619166732,156.9725189,
1.620833278,158.2727509,
1.622499943,157.6815796,
1.624166727,157.6467285,
1.625833392,157.2576599,
1.627500057,157.8204346,
1.629166722,157.859848,
1.630833268,157.6141052,
1.632500052,157.7470703,
1.634166718,158.4001312,
1.635833383,156.6021881,
1.637500048,156.9465942,
1.639166594,157.0687561,
1.640833378,158.8671112,
1.642500043,159.1459961,
1.644166708,157.8712769,
1.645833373,157.7310181,
1.647499919,158.6217499,
1.649166703,157.7050018,
1.650833368,158.4985962,
1.652500033,158.6743164,
1.654166698,158.4771576,
1.655833364,158.8865662,
1.657500029,158.202713,
1.659166694,159.3656921,
1.660833359,158.8818359,
1.662500024,158.7227631,
1.664166689,159.238266,
1.665833354,158.4869995,
1.667500019,159.1326294,
1.669166684,158.7426453,
1.670833349,158.8034973,
1.672500014,158.4873352,
1.674166799,159.1790161,
1.675833344,158.370224,
1.67750001,159.3107605,
1.679166675,159.3482971,
1.68083334,159.1059418,
1.682500124,160.772934,
1.68416667,158.7307129,
1.685833335,160.1321106,
1.6875,158.782486,
1.689166665,158.4523315,
1.690833449,158.6630707,
1.692499995,160.1219482,
1.69416666,160.2218018,
1.695833325,158.6737976,
1.69749999,159.6816711,
1.699166775,159.4632111,
1.70083344,159.3336639,
1.702499986,160.8405457,
1.704166651,160.7438812,
1.705833316,159.9672546,
1.7075001,159.3418732,
1.709166765,160.734726,
1.710833311,160.3891907,
1.712499976,161.3405762,
1.714166641,159.636322,
1.715833426,160.8747864,
1.717500091,160.269104,
1.719166636,160.7156372,
1.720833302,160.3753662,
1.722499967,161.4538116,
1.724166751,160.1973419,
1.725833416,160.9555359,
1.727500081,161.7854462,
1.729166627,160.4992218,
1.730833292,160.1411743,
1.732500076,160.4320221,
1.734166741,161.5104523,
1.735833406,160.2830963,
1.737499952,160.9506836,
1.739166617,161.3209839,
1.740833402,160.2684631,
1.742500067,161.5340881,
1.744166732,161.0705109,
1.745833278,160.6638489,
1.747499943,160.8341827,
1.749166727,160.6998901,
1.750833392,160.7199249,
1.752500057,162.0258636,
1.754166722,160.7623444,
1.755833268,160.4756775,
1.757500052,160.8812866,
1.759166718,161.3342438,
1.760833383,162.186615,
1.762500048,161.068222,
1.764166594,161.7820282,
1.765833378,161.9341583,
1.767500043,161.887207,
1.769166708,161.5154877,
1.770833373,160.9286499,
1.772499919,162.2121582,
1.774166703,160.8332214,
1.775833368,161.9053192,
1.777500033,163.1688232,
1.779166698,161.8573456,
1.780833364,161.1657257,
1.782500029,162.0187683,
1.784166694,162.3665161,
1.785833359,162.1099548,
1.787500024,161.9269409,
1.789166689,162.0111694,
1.790833354,161.2867737,
1.792500019,162.8167877,
1.794166684,162.3038483,
1.795833349,161.529007,
1.797500014,162.6124573,
1.799166799,162.2814484,
1.800833344,161.8918152,
1.80250001,162.2827148,
1.804166675,162.26091,
1.80583334,162.8533936,
1.807500124,162.4073639,
1.80916667,162.4673462,
1.810833335,162.1682129,
1.8125,161.5301819,
1.814166665,161.3522186,
1.815833449,162.6479797,
1.817499995,163.0517731,
1.81916666,162.5314789,
1.820833325,162.4030151,
1.82249999,162.1419678,
1.824166775,162.5308685,
1.82583344,161.5328064,
1.827499986,163.1006165,
1.829166651,164.2326965,
1.830833316,162.873764,
1.8325001,162.7710571,
1.834166765,163.0110168,
1.835833311,163.0351868,
1.837499976,163.0894318,
1.839166641,163.5253143,
1.840833426,162.871933,
1.842500091,162.5607452,
1.844166636,162.8873444,
1.845833302,163.8578339,
1.847499967,163.1147156,
1.849166751,163.1279144,
1.850833416,163.7436523,
1.852500081,163.1605682,
1.854166627,162.9397278,
1.855833292,163.6772766,
1.857500076,163.8180389,
1.859166741,163.1834106,
1.860833406,164.094696,
1.862499952,163.5335388,
1.864166617,164.3779755,
1.865833402,161.9374237,
1.867500067,164.2468719,
1.869166732,163.1218872,
1.870833278,163.5742188,
1.872499943,163.3549194,
1.874166727,164.2128601,
1.875833392,163.7484436,
1.877500057,163.4966583,
1.879166722,165.1586151,
1.880833268,163.1428986,
1.882500052,162.7509308,
1.884166718,162.9194183,
1.885833383,164.0761871,
1.887500048,162.6790619,
1.889166594,163.903244,
1.890833378,163.5573273,
1.892500043,164.8776245,
1.894166708,164.6109009,
1.895833373,162.795929,
1.897499919,164.4796143,
1.899166703,163.7841187,
1.900833368,163.1263428,
1.902500033,164.4652405,
1.904166698,165.1922302,
1.905833364,165.6551208,
1.907500029,164.6695099,
1.909166694,162.8808136,
1.910833359,164.2137299,
1.912500024,163.5093689,
1.914166689,164.7935486,
1.915833354,164.455307,
1.917500019,164.6378784,
1.919166684,165.3327484,
1.920833349,163.0663147,
1.922500014,165.3370514,
1.924166799,165.2575989,
1.925833344,163.8747101,
1.92750001,165.0463104,
1.929166675,163.4012756,
1.93083334,164.8059692,
1.932500124,164.2177734,
1.93416667,164.7873993,
1.935833335,164.762558,
1.9375,165.8374939,
1.939166665,163.5869141,
1.940833449,164.917984,
1.942499995,164.0591125,
1.94416666,163.8284302,
1.945833325,164.6014099,
1.94749999,164.8485107,
1.949166775,165.1750031,
1.95083344,164.1681976,
1.952499986,165.3537292,
1.954166651,165.5581055,
1.955833316,165.4061584,
1.9575001,165.8319092,
1.959166765,165.6146545,
1.960833311,164.4581909,
1.962499976,165.7066803,
1.964166641,164.5660553,
1.965833426,164.4985657,
1.967500091,165.6366425,
1.969166636,166.0540314,
1.970833302,164.8587494,
1.972499967,165.0153046,
1.974166751,164.1572418,
1.975833416,164.9584503,
1.977500081,166.0154419,
1.979166627,165.6249237,
1.980833292,165.0685883,
1.982500076,164.7263336,
1.984166741,164.6434326,
1.985833406,164.4473572,
1.987499952,165.27034,
1.989166617,164.481308,
1.990833402,164.888443,
1.992500067,165.6585999,
1.994166732,166.7553711,
1.995833278,165.1287994,
1.997499943,165.2684937,
1.999166727,165.4082642,
2.000833273,166.004303,
2.002500057,164.8352966,
2.004166603,164.9342651,
2.005833387,165.1462708,
2.007500172,165.4428711,
2.009166718,164.4050446,
2.010833263,165.5555878,
2.012500048,166.0798798,
2.014166594,165.6917572,
2.015833378,164.2115631,
2.017500162,164.5075836,
2.019166708,165.9248047,
2.020833254,166.042923,
2.022500038,166.0654907,
2.024166822,165.8166199,
2.025833368,165.9125824,
2.027499914,165.2432556,
2.029166698,164.9732819,
2.030833244,165.4629669,
2.032500029,166.3961792,
2.034166813,165.2548828,
2.035833359,165.4320984,
2.037499905,165.8127136,
2.039166689,165.9780273,
2.040833473,165.221405,
2.042500019,165.5457764,
2.044166803,166.1377563,
2.045833349,165.5200653,
2.047499895,165.2517853,
2.049166679,165.7804413,
2.050833464,167.7840271,
2.05250001,166.1544189,
2.054166555,165.3952484,
2.05583334,167.6313782,
2.057500124,166.1586761,
2.05916667,165.5003357,
2.060833454,165.5183105,
2.0625,165.2955933,
2.064166546,165.7381592,
2.06583333,166.9620361,
2.067500114,167.543869,
2.06916666,166.1687469,
2.070833445,165.6217346,
2.07249999,165.920105,
2.074166775,166.418457,
2.075833321,165.9091797,
2.077500105,166.5204468,
2.079166651,167.1519775,
2.080833197,164.8340149,
2.082499981,166.0189514,
2.084166765,164.9673004,
2.085833311,166.4644775,
2.087500095,165.979538,
2.089166641,165.9477844,
2.090833426,166.5198059,
2.092499971,167.0957336,
2.094166756,165.9849854,
2.095833302,166.2490997,
2.097500086,166.5318298,
2.099166632,165.4827423,
2.100833416,166.4002075,
2.102499962,167.8430176,
2.104166746,166.8201141,
2.105833292,166.233551,
2.107500076,166.3900604,
2.109166622,166.3544159,
2.110833406,166.2633514,
2.112499952,167.6349487,
2.114166737,167.7761688,
2.115833521,166.0601196,
2.117500067,166.3675385,
2.119166613,167.500885,
2.120833397,167.0281677,
2.122499943,165.7843628,
2.124166727,165.8269958,
2.125833273,166.8774872,
2.127500057,167.245285,
2.129166603,166.2428589,
2.130833387,167.6472931,
2.132500172,167.0571289,
2.134166718,166.9338074,
2.135833502,166.3432465,
2.137500048,165.2746735,
2.139166832,166.2336121,
2.140833378,166.2041321,
2.142500162,166.2733765,
2.144166708,167.1783295,
2.145833254,166.8588562,
2.147500038,167.6611633,
2.149166584,167.5328979,
2.150833368,167.2506256,
2.152500153,166.6656952,
2.154166698,166.66185,
2.155833483,167.2937317,
2.157500029,166.3482971,
2.159166813,167.2431488,
2.160833597,167.6361847,
2.162499905,166.916214,
2.164166689,165.8317871,
2.165833235,165.834198,
2.167500019,167.3520813,
2.169166803,166.825531,
2.170833349,168.1405182,
2.172500134,167.1422119,
2.174166679,168.2459259,
2.175833464,166.5559845,
2.177500248,166.5540314,
2.179166555,166.4846039,
2.18083334,167.0776215,
2.182499886,166.6201172,
2.18416667,166.1149597,
2.185833454,167.0898743,
2.1875,168.6773682,
2.189166784,167.9152069,
2.19083333,167.494339,
2.192500114,166.511261,
2.194166899,166.8044434,
2.195833445,167.3174744,
2.19749999,165.9570313,
2.199166536,166.6676331,
2.200833321,166.7962799,
2.202500105,166.2109375,
2.204166651,166.3999481,
2.205833435,166.4658661,
2.207499981,167.3596344,
2.209166765,166.7548828,
2.210833549,166.8247681,
2.212500095,167.9172058,
2.21416688,167.0655212,
2.215833187,166.3036957,
2.217499971,167.7881165,
2.219166756,167.0770111,
2.220833302,166.9992218,
2.222500086,167.4013519,
2.224166632,167.1644592,
2.225833416,167.8200684,
2.2275002,166.6513824,
2.229166746,167.7669983,
2.23083353,166.7106934,
2.232499838,167.8208771,
2.234166622,166.7642365,
2.235833406,166.8259583,
2.237499952,165.1115723,
2.239166737,167.8847046,
2.240833282,166.7606812,
2.242500067,165.840744,
2.244166851,167.5465851,
2.245833397,167.2333679,
2.247500181,166.7705078,
2.249166727,166.9282837,
2.250833273,166.3173065,
2.252500057,167.5639496,
2.254166603,168.0953522,
2.255833387,168.1781311,
2.257499933,168.1963654,
2.259166718,166.8596497,
2.260833502,166.961441,
2.262500048,168.3214874,
2.264166832,166.9736786,
2.265833378,168.8845978,
2.267500162,167.8276062,
2.269166708,168.5007629,
2.270833254,168.3333893,
2.272500038,167.4231567,
2.274166584,166.5061646,
2.275833368,166.8473206,
2.277500153,167.8229218,
2.279166698,167.7570953,
2.280833483,167.7645721,
2.282500029,166.2920532,
2.284166813,167.9641724,
2.285833597,166.7943878,
2.287499905,167.5171661,
2.289166689,167.6706543,
2.290833235,167.22966,
2.292500019,167.6739807,
2.294166803,166.6279449,
2.295833349,168.135025,
2.297500134,166.7819366,
2.299166679,166.5331879,
2.300833464,167.4639282,
2.302500248,167.9749756,
2.304166555,168.0415497,
2.30583334,167.1942139,
2.307499886,168.2142792,
2.30916667,168.776123,
2.310833454,168.4784393,
2.3125,168.2445068,
2.314166784,168.237442,
2.31583333,167.27388,
2.317500114,169.0987091,
2.319166899,167.5792542,
2.320833445,168.0162201,
2.32249999,168.0342255,
2.324166536,167.6196747,
2.325833321,168.2462463,
2.327500105,168.0229645,
2.329166651,167.1381836,
2.330833435,168.0280457,
2.332499981,166.8934174,
2.334166765,167.0410767,
2.335833549,168.0837402,
2.337500095,168.7520294,
2.33916688,167.0575714,
2.340833187,167.7433472,
2.342499971,167.7668915,
2.344166756,168.85672,
2.345833302,168.2451172,
2.347500086,167.5631104,
2.349166632,169.0950012,
2.350833416,169.263916,
2.3525002,166.480545,
2.354166746,168.2314758,
2.35583353,167.4198761,
2.357499838,167.6432648,
2.359166622,168.2672882,
2.360833406,168.3060913,
2.362499952,167.8328094,
2.364166737,167.4874573,
2.365833282,167.0078125,
2.367500067,168.9564819,
2.369166851,167.9793091,
2.370833397,166.5464325,
2.372500181,167.7109222,
2.374166727,168.4150848,
2.375833273,167.8321686,
2.377500057,167.5207977,
2.379166603,168.2291107,
2.380833387,168.9075775,
2.382499933,167.4901733,
2.384166718,168.2747345,
2.385833502,168,
2.387500048,168.4258575,
2.389166832,168.0727386,
2.390833378,168.6561737,
2.392500162,168.5564575,
2.394166708,167.5118866,
2.395833254,168.7626953,
2.397500038,167.3841858,
2.399166584,167.5990753,
2.400833368,167.4022217,
2.402500153,169.7164764,
2.404166698,167.1627502,
2.405833483,167.8919067,
2.407500029,168.5450134,
2.409166813,168.0542908,
2.410833597,167.0084686,
2.412499905,167.675415,
2.414166689,168.7605286,
2.415833235,169.3655396,
2.417500019,168.6615601,
2.419166803,168.2887115,
2.420833349,166.8488922,
2.422500134,167.6708374,
2.424166679,168.712616,
2.425833464,168.5716095,
2.427500248,168.3508759,
2.429166555,167.9514923,
2.43083334,167.4082489,
2.432499886,168.8283386,
2.43416667,168.4384766,
2.435833454,168.0389252,
2.4375,166.8845978,
2.439166784,167.1087494,
2.44083333,168.5074463,
2.442500114,168.7222595,
2.444166899,168.5707397,
2.445833445,167.9068146,
2.44749999,166.5346832,
2.449166536,168.3028259,
2.450833321,166.9685974,
2.452500105,166.9988556,
2.454166651,169.0724945,
2.455833435,168.4377289,
2.457499981,169.7463989,
2.459166765,169.4627228,
2.460833549,167.6576691,
2.462500095,167.8344727,
2.46416688,168.5115814,
2.465833187,168.2156525,
2.467499971,166.9233093,
2.469166756,167.9433136,
2.470833302,169.1319122,
2.472500086,168.2942963,
2.474166632,167.5476227,
2.475833416,168.3850555,
2.4775002,166.7286377,
2.479166746,168.9618073,
2.48083353,168.1442108,
2.482499838,167.0018158,
2.484166622,168.8924866,
2.485833406,167.396759,
2.487499952,168.5481873,
2.489166737,169.4094849,
2.490833282,167.9194183,
2.492500067,168.2085419,
2.494166851,168.19104,
2.495833397,167.4319153,
2.497500181,168.6122284,
2.499166727,168.7887573,
2.500833273,167.7219391,
2.502500057,168.8226013,
2.504166603,167.2113495,
2.505833387,168.9860687,
2.507499933,170.6547241,
2.509166718,168.3327789,
2.510833502,168.693222,
2.512500048,167.8197784,
2.514166832,168.977066,
2.515833378,168.3256531,
2.517500162,169.0015564,
2.519166708,168.98703,
2.520833254,169.2059937,
2.522500038,168.1168976,
2.524166584,168.7300415,
2.525833368,167.633728,
2.527500153,167.0503082,
2.529166698,168.9286041,
2.530833483,167.3022003,
2.532500029,168.8392487,
2.534166813,167.3371277,
2.535833597,167.8991241,
2.537499905,167.8580017,
2.539166689,167.9887238,
2.540833235,168.3044586,
2.542500019,168.4808502,
2.544166803,168.2853851,
2.545833349,167.562088,
2.547500134,168.7828369,
2.549166679,168.7965851,
2.550833464,168.6905975,
2.552500248,169.0221558,
2.554166555,170.2224731,
2.55583334,167.763092,
2.557499886,169.6047974,
2.55916667,169.1076508,
2.560833454,168.5525055,
2.5625,169.4835968,
2.564166784,168.5442047,
2.56583333,169.0875244,
2.567500114,169.632843,
2.569166899,168.3316345,
2.570833445,167.7625885,
2.57249999,169.0548248,
2.574166536,169.0380554,
2.575833321,169.1267548,
2.577500105,168.8040771,
2.579166651,167.9974823,
2.580833435,169.3690186,
2.582499981,169.2733765,
2.584166765,168.5993652,
2.585833549,170.0515289,
2.587500095,168.1390076,
2.58916688,169.6027527,
2.590833187,170.0973511,
2.592499971,168.5550995,
2.594166756,168.4768524,
2.595833302,168.9035034,
2.597500086,167.6915131,
2.599166632,168.3972168,
2.600833416,167.9819336,
2.6025002,167.7119141,
2.604166746,169.1507416,
2.60583353,168.8890839,
2.607499838,168.6934509,
2.609166622,168.4880219,
2.610833406,169.9654694,
2.612499952,168.5359344,
2.614166737,167.3899689,
2.615833282,168.664093,
2.617500067,168.3454437,
2.619166851,169.3997192,
2.620833397,169.5549927,
2.622500181,167.6107483,
2.624166727,168.1299133,
2.625833273,168.688385,
2.627500057,168.7887421,
2.629166603,168.1603699,
2.630833387,169.7547913,
2.632499933,170.6562805,
2.634166718,168.7301788,
2.635833502,170.4355621,
2.637500048,167.4384003,
2.639166832,169.8330383,
2.640833378,168.8043365,
2.642500162,169.0748596,
2.644166708,170.1716461,
2.645833254,168.7369232,
2.647500038,168.7990417,
2.649166584,169.2045898,
2.650833368,168.7513275,
2.652500153,168.2032776,
2.654166698,168.2212982,
2.655833483,168.8109131,
2.657500029,168.5956879,
2.659166813,168.1451721,
2.660833597,169.3974609,
2.662499905,168.1200104,
2.664166689,169.3235321,
2.665833235,169.0961914,
2.667500019,168.7692413,
2.669166803,169.1739807,
2.670833349,168.9760284,
2.672500134,169.2482452,
2.674166679,169.2272797,
2.675833464,169.7823486,
2.677500248,169.5360413,
2.679166555,168.8411713,
2.68083334,168.7996063,
2.682499886,169.6498413,
2.68416667,169.3798676,
2.685833454,168.4427185,
2.6875,170.2410736,
2.689166784,168.1834106,
2.69083333,169.673172,
2.692500114,167.700058,
2.694166899,168.7838898,
2.695833445,169.0720825,
2.69749999,169.708252,
2.699166536,168.7596588,
2.700833321,170.6721344,
2.702500105,170.0527954,
2.704166651,169.1973572,
2.705833435,168.5388489,
2.707499981,168.6797638,
2.709166765,167.7862091,
2.710833549,169.0166626,
2.712500095,169.2436066,
2.71416688,169.1635437,
2.715833187,168.9260406,
2.717499971,169.0667572,
2.719166756,168.8591919,
2.720833302,170.6165314,
2.722500086,170.3567963,
2.724166632,168.653656,
2.725833416,169.4397125,
2.7275002,169.3875732,
2.729166746,169.6621246,
2.73083353,169.1532745,
2.732499838,168.0679626,
2.734166622,169.5675964,
2.735833406,169.464035,
2.737499952,168.7161102,
2.739166737,168.9585571,
2.740833282,168.0780334,
2.742500067,169.5974579,
2.744166851,167.4718018,
2.745833397,167.7928009,
2.747500181,170.2909698,
2.749166727,169.9536896,
2.750833273,169.5170746,
2.752500057,168.7036438,
2.754166603,169.5713959,
2.755833387,170.0120087,
2.757499933,169.3869781,
2.759166718,170.2604675,
2.760833502,170.0221863,
2.762500048,168.9125061,
2.764166832,169.3215332,
2.765833378,168.8001099,
2.767500162,168.9442902,
2.769166708,170.6091614,
2.770833254,169.8072815,
2.772500038,168.8798218,
2.774166584,167.7510986,
2.775833368,168.6011047,
2.777500153,168.9313812,
2.779166698,169.5099182,
2.780833483,169.3800507,
2.782500029,168.9481812,
2.784166813,170.9178619,
2.785833597,169.0481415,
2.787499905,168.5312195,
2.789166689,167.7894135,
2.790833235,169.6047211,
2.792500019,169.8117523,
2.794166803,169.1076355,
2.795833349,170.5980835,
2.797500134,169.4520416,
2.799166679,169.4449158,
2.800833464,168.3466644,
2.802500248,169.5330505,
2.804166555,168.4864655,
2.80583334,168.7403259,
2.807499886,169.0940399,
2.80916667,168.8717194,
2.810833454,168.5491028,
2.8125,169.4069977,
2.814166784,168.9126892,
2.81583333,167.7449951,
2.817500114,169.9189758,
2.819166899,169.8326721,
2.820833445,170.1305237,
2.82249999,168.010849,
2.824166536,168.5681305,
2.825833321,168.9442444,
2.827500105,169.3556976,
2.829166651,169.128006,
2.830833435,169.1948395,
2.832499981,168.8302612,
2.834166765,168.4737549,
2.835833549,169.3547974,
2.837500095,168.2560272,
2.83916688,169.7956848,
2.840833187,169.4893646,
2.842499971,168.8748779,
2.844166756,169.668808,
2.845833302,168.637207,
2.847500086,168.3712311,
2.849166632,169.5020752,
2.850833416,168.7737274,
2.8525002,169.3365631,
2.854166746,168.6523895,
2.85583353,168.8380737,
2.857499838,168.5191498,
2.859166622,169.4873657,
2.860833406,170.4182129,
2.862499952,169.1829224,
2.864166737,167.7729187,
2.865833282,168.5472107,
2.867500067,169.1932526,
2.869166851,168.348526,
2.870833397,169.6526489,
2.872500181,169.6233978,
2.874166727,169.6669006,
2.875833273,170.2786255,
2.877500057,168.5887146,
2.879166603,169.3092041,
2.880833387,169.4600372,
2.882499933,170.4643707,
2.884166718,169.44841,
2.885833502,170.2805786,
2.887500048,168.5995178,
2.889166832,168.9523926,
2.890833378,168.5692139,
2.892500162,168.655777,
2.894166708,169.3020935,
2.895833254,169.2115326,
2.897500038,168.8037262,
2.899166584,168.7077942,
2.900833368,167.4828339,
2.902500153,169.536911,
2.904166698,168.8696136,
2.905833483,167.4987946,
2.907500029,169.4757233,
2.909166813,169.6383209,
2.910833597,170.3077393,
2.912499905,168.9781494,
2.914166689,169.588623,
2.915833235,170.1212463,
2.917500019,169.6040344,
2.919166803,169.2341156,
2.920833349,168.6504974,
2.922500134,169.0835876,
2.924166679,169.4409943,
2.925833464,169.0578766,
2.927500248,168.8845367,
2.929166555,168.7637939,
2.93083334,170.1272278,
2.932499886,168.9476624,
2.93416667,168.5781403,
2.935833454,169.3600311,
2.9375,170.1491547,
2.939166784,169.7393646,
2.94083333,169.1579895,
2.942500114,168.1956482,
2.944166899,169.3959503,
2.945833445,170.0911102,
2.94749999,170.7514954,
2.949166536,170.5529633,
2.950833321,169.4420471,
2.952500105,168.9715271,
2.954166651,169.8489685,
2.955833435,169.6526642,
2.957499981,168.3845978,
2.959166765,170.2504272,
2.960833549,169.6171722,
2.962500095,168.7097626,
2.96416688,169.8856812,
2.965833187,169.2968903,
2.967499971,169.801651,
2.969166756,169.6417236,
2.970833302,169.6465912,
2.972500086,168.4306335,
2.974166632,168.6279907,
2.975833416,168.2442322,
2.9775002,169.7184601,
2.979166746,168.9253693,
2.98083353,168.2189331,
2.982499838,169.4353638,
2.984166622,169.2565002,
2.985833406,169.5826111,
2.987499952,169.8974762,
2.989166737,168.2830658,
2.990833282,169.8697205,
2.992500067,169.4928284,
2.994166851,168.6437988,
2.995833397,170.1687317,
2.997500181,169.8833466,
2.999166727,169.0735168,
3.000833273,169.1524811,
3.002500057,170.0876312,
3.004166603,170.5681,
3.005833387,169.5144196,
3.007499933,167.8356476,
3.009166718,169.3044434,
3.010833502,169.419754,
3.012500048,169.8467255,
3.014166832,169.7418823,
3.015833378,168.7862854,
3.017500162,169.6892395,
3.019166708,169.8576202,
3.020833254,168.4104767,
3.022500038,169.9648285,
3.024166584,169.3974762,
3.025833368,170.5416718,
3.027500153,170.3315887,
3.029166698,169.8977051,
3.030833483,170.0677795,
3.032500029,168.6898499,
3.034166813,170.0175781,
3.035833597,170.1031799,
3.037499905,169.5318298,
3.039166689,169.4279022,
3.040833235,169.863266,
3.042500019,170.3153076,
3.044166803,169.0428772,
3.045833349,169.1251221,
3.047500134,169.6695251,
3.049166679,168.9490204,
3.050833464,169.1688995,
3.052500248,171.2866364,
3.054166555,169.7182159,
3.05583334,169.8256378,
3.057499886,169.0150452,
3.05916667,170.5426025,
3.060833454,169.3301544,
3.0625,170.7900085,
3.064166784,169.5988617,
3.06583333,168.9293213,
3.067500114,168.338974,
3.069166899,170.5853119,
3.070833445,168.1599884,
3.07249999,169.1904907,
3.074166536,168.3192596,
3.075833321,171.4974213,
3.077500105,168.6655579,
3.079166651,169.470993,
3.080833435,169.26651,
3.082499981,168.8370819,
3.084166765,170.8148346,
3.085833549,168.1480713,
3.087500095,169.5180969,
3.08916688,170.3630829,
3.090833187,171.1642151,
3.092499971,168.5426331,
3.094166756,168.9397125,
3.095833302,169.2559357,
3.097500086,169.6998596,
3.099166632,170.5652008,
3.100833416,169.9047546,
3.1025002,170.5940399,
3.104166746,169.3426056,
3.10583353,168.8922119,
3.107499838,170.5274048,
3.109166622,171.1545105,
3.110833406,169.3259277,
3.112499952,168.4381409,
3.114166737,168.7364807,
3.115833282,169.3017578,
3.117500067,168.4962311,
3.119166851,169.8548279,
3.120833397,170.6861267,
3.122500181,170.4358673,
3.124166727,169.2386627,
3.125833273,168.8168335,
3.127500057,169.5878754,
3.129166603,170.2071228,
3.130833387,169.464325,
3.132499933,168.3619385,
3.134166718,168.6217194,
3.135833502,169.2051697,
3.137500048,168.4845428,
3.139166832,169.9412994,
3.140833378,168.9505005,
3.142500162,170.1324921,
3.144166708,169.3228607,
3.145833254,169.1878662,
3.147500038,170.0170288,
3.149166584,169.6285706,
3.150833368,167.9340973,
3.152500153,169.2717896,
3.154166698,169.4303589,
3.155833483,170.3430939,
3.157500029,169.2342834,
3.159166813,170.0989685,
3.160833597,169.7383575,
3.162499905,168.0170593,
3.164166689,168.6493988,
3.165833235,168.8962402,
3.167500019,168.2860107,
3.169166803,168.2374268,
3.170833349,170.0073853,
3.172500134,169.5292664,
3.174166679,169.4954071,
3.175833464,169.5540771,
3.177500248,168.8440704,
3.179166555,169.8689575,
3.18083334,169.3722687,
3.182499886,169.8139954,
3.18416667,170.5687256,
3.185833454,169.2434845,
3.1875,169.7561951,
3.189166784,168.6672516,
3.19083333,168.5342712,
3.192500114,170.1298218,
3.194166899,169.2330322,
3.195833445,169.5531464,
3.19749999,168.8051605,
3.199166536,169.0021515,
3.200833321,168.3781433,
3.202500105,169.0657654,
3.204166651,169.7906799,
3.205833435,169.1530609,
3.207499981,170.4296417,
3.209166765,171.0583801,
3.210833549,169.6045074,
3.212500095,169.6945953,
3.21416688,170.6986694,
3.215833187,170.1479492,
3.217499971,169.1350555,
3.219166756,169.298645,
3.220833302,170.6584473,
3.222500086,170.3731079,
3.224166632,169.3410034,
3.225833416,168.365921,
3.2275002,168.822525,
3.229166746,170.4609833,
3.23083353,170.112442,
3.232499838,168.3398132,
3.234166622,170.6478577,
3.235833406,169.0162354,
3.237499952,170.5287781,
3.239166737,168.686203,
3.240833282,169.9128723,
3.242500067,170.0145416,
3.244166851,170.120636,
3.245833397,169.4452209,
3.247500181,169.6764679,
3.249166727,168.8280182,
3.250833273,168.3865051,
3.252500057,169.3215332,
3.254166603,170.2246552,
3.255833387,169.1817932,
3.257499933,169.8156128,
3.259166718,168.8250122,
3.260833502,170.4251862,
3.262500048,169.8182068,
3.264166832,169.5366821,
3.265833378,171.0380707,
3.267500162,168.515564,
3.269166708,171.3635406,
3.270833254,169.9780121,
3.272500038,170.3235474,
3.274166584,170.1759338,
3.275833368,169.7273712,
3.277500153,169.6263885,
3.279166698,169.3067627,
3.280833483,170.0143738,
3.282500029,168.885437,
3.284166813,169.6506042,
3.285833597,170.3413696,
3.287499905,168.3155212,
3.289166689,169.0786591,
3.290833235,169.9542999,
3.292500019,168.9988861,
3.294166803,169.1290283,
3.295833349,169.0175476,
3.297500134,170.1824188,
3.299166679,170.9355621,
3.300833464,168.9472656,
3.302500248,169.5866547,
3.304166555,169.3915405,
3.30583334,169.9713287,
3.307499886,169.3808594,
3.30916667,169.6608276,
3.310833454,169.004715,
3.3125,170.0261078,
3.314166784,171.3939362,
3.31583333,169.0932007,
3.317500114,169.8244934,
3.319166899,168.6829376,
3.320833445,168.70224,
3.32249999,169.9992371,
3.324166536,167.703537,
3.325833321,169.4246674,
3.327500105,170.262085,
3.329166651,169.8751678,
3.330833435,170.167038,
3.332499981,170.7592468,
3.334166765,169.2718506,
3.335833549,170.5638428,
3.337500095,169.917984,
3.33916688,170.4436798,
3.340833187,169.611557,
3.342499971,170.1887207,
3.344166756,169.4891815,
3.345833302,171.1131744,
3.347500086,170.5808716,
3.349166632,168.9799652,
3.350833416,169.4499207,
3.3525002,169.1282043,
3.354166746,169.0210266,
3.35583353,170.956192,
3.357499838,169.692627,
3.359166622,170.3488922,
3.360833406,169.4074707,
3.362499952,168.0711365,
3.364166737,169.1120605,
3.365833282,170.0494537,
3.367500067,169.6474762,
3.369166851,170.2854462,
3.370833397,170.4290009,
3.372500181,170.3749237,
3.374166727,170.3705444,
3.375833273,168.7650146,
3.377500057,169.8043823,
3.379166603,170.0992584,
3.380833387,170.1878052,
3.382499933,169.7883911,
3.384166718,169.440918,
3.385833502,169.5642853,
3.387500048,170.1874695,
3.389166832,168.5054932,
3.390833378,169.6225128,
3.392500162,170.5261841,
3.394166708,169.220459,
3.395833254,170.2946777,
3.397500038,170.4150391,
3.399166584,169.320282,
3.400833368,168.9403229,
3.402500153,169.6612549,
3.404166698,169.1467896,
3.405833483,169.4572144,
3.407500029,169.9292297,
3.409166813,171.2261047,
3.410833597,169.5353088,
3.412499905,169.9894714,
3.414166689,168.401535,
3.415833235,168.8676453,
3.417500019,169.1692047,
3.419166803,170.6433716,
3.420833349,169.5910187,
3.422500134,169.7163544,
3.424166679,170.4690704,
3.425833464,170.2394714,
3.427500248,170.3371124,
3.429166555,169.3844452,
3.43083334,170.9307098,
3.432499886,169.6300659,
3.43416667,170.0490875,
3.435833454,169.9108124,
3.4375,170.0101318,
3.439166784,170.0427094,
3.44083333,169.2645721,
3.442500114,170.1222839,
3.444166899,169.7212067,
3.445833445,170.6035309,
3.44749999,169.0690613,
3.449166536,169.5085907,
3.450833321,170.3460236,
3.452500105,170.6776886,
3.454166651,170.50354,
3.455833435,170.9357452,
3.457499981,169.0726013,
3.459166765,170.2685852,
3.460833549,168.9963531,
3.462500095,169.3586273,
3.46416688,168.9265747,
3.465833187,169.2330933,
3.467499971,169.4602661,
3.469166756,169.84375,
3.470833302,170.4237061,
3.472500086,169.7347412,
3.474166632,170.4413757,
3.475833416,168.5109711,
3.4775002,170.4173889,
3.479166746,169.4490051,
3.48083353,169.1160431,
3.482499838,169.7904968,
3.484166622,171.0843506,
3.485833406,170.2934875,
3.487499952,169.7832489,
3.489166737,169.1799011,
3.490833282,169.1802063,
3.492500067,169.8929901,
3.494166851,169.1324921,
3.495833397,169.8692627,
3.497500181,169.8034363,
3.499166727,170.0334473,
3.500833273,170.0137634,
3.502500057,169.2897491,
3.504166603,169.5663147,
3.505833387,169.7139893,
3.507499933,170.2299957,
3.509166718,170.2670288,
3.510833502,169.5614014,
3.512500048,170.8918762,
3.514166832,169.6830902,
3.515833378,170.4729462,
3.517500162,168.7601166,
3.519166708,169.909317,
3.520833254,170.3619843,
3.522500038,170.0220947,
3.524166584,168.7746582,
3.525833368,169.5824432,
3.527500153,170.3703766,
3.529166698,170.0010681,
3.530833483,170.2466736,
3.532500029,170.3779449,
3.534166813,170.4068146,
3.535833597,170.0306396,
3.537499905,169.1759033,
3.539166689,169.9051208,
3.540833235,170.3370667,
3.542500019,169.4788513,
3.544166803,170.0897522,
3.545833349,169.3935547,
3.547500134,170.4687958,
3.549166679,169.3641663,
3.550833464,169.8570099,
3.552500248,170.2546082,
3.554166555,169.1865845,
3.55583334,169.1600037,
3.557499886,169.6128998,
3.55916667,169.8767548,
3.560833454,169.9879303,
3.5625,169.3340149,
3.564166784,170.7215729,
3.56583333,170.2604523,
3.567500114,170.0752106,
3.569166899,169.1511383,
3.570833445,169.483963,
3.57249999,171.7591858,
3.574166536,168.3423615,
3.575833321,170.2370148,
3.577500105,169.6398621,
3.579166651,170.0296478,
3.580833435,170.2597198,
3.582499981,169.6025543,
3.584166765,170.105835,
3.585833549,169.5880737,
3.587500095,170.4444275,
3.58916688,169.4242706,
3.590833187,171.0545197,
3.592499971,170.2316284,
3.594166756,171.6655884,
3.595833302,170.2048035,
3.597500086,170.4270325,
3.599166632,168.8068085,
3.600833416,170.3741302,
3.6025002,169.8979492,
3.604166746,169.9524841,
3.60583353,169.8762054,
3.607499838,169.26828,
3.609166622,169.7944946,
3.610833406,168.6777954,
3.612499952,170.6495361,
3.614166737,169.5674286,
3.615833282,170.239502,
3.617500067,170.0282745,
3.619166851,170.1014404,
3.620833397,168.891571,
3.622500181,170.2474518,
3.624166727,169.5419464,
3.625833273,169.2104492,
3.627500057,171.074173,
3.629166603,170.0690765,
3.630833387,171.0416412,
3.632499933,170.1730347,
3.634166718,168.6551666,
3.635833502,168.8818665,
3.637500048,169.7051544,
3.639166832,170.3273315,
3.640833378,169.8947754,
3.642500162,169.8397064,
3.644166708,170.8820648,

