1,,
Time (min),Intensity (a.u.),
0.0008333333535,23.86499214,
0.002500000177,23.97935867,
0.004166666884,23.94946861,
0.005833333358,23.54701996,
0.007500000298,23.90202904,
0.009166667238,24.14078903,
0.01083333418,24.26009178,
0.01250000019,24.37976837,
0.01416666713,24.28757286,
0.01583333313,24.26412392,
0.01750000194,24.16228294,
0.01916666701,23.85832024,
0.02083333395,24.23357391,
0.02250000089,24.02865219,
0.02416666783,23.971735,
0.02583333477,23.90584755,
0.02749999985,24.42886353,
0.02916666679,24.41099739,
0.03083333373,24.34233856,
0.03250000253,24.06887627,
0.03416666761,24.13391304,
0.03583333641,24.07348442,
0.03750000149,24.08411407,
0.03916667029,24.00545502,
0.04083333537,24.25794029,
0.04250000045,24.23473167,
0.04416666925,24.05163574,
0.04583333433,23.47712326,
0.04750000313,24.26605034,
0.04916666821,24.3963871,
0.05083333328,24.23357582,
0.05250000209,23.84980011,
0.05416666716,24.57158852,
0.05583333597,23.83181572,
0.05750000104,24.05101776,
0.05916666612,24.46651459,
0.06083333492,24.10271645,
0.0625,24.48702049,
0.06416667253,23.76646805,
0.0658333376,23.91086769,
0.06750000268,23.74902916,
0.06916666776,24.0545845,
0.07083333284,24.08480644,
0.07249999791,24.11341858,
0.07416667044,24.0097847,
0.07583333552,23.78795052,
0.0775000006,23.82098007,
0.07916666567,24.64879417,
0.08083333075,23.75746727,
0.08250000328,23.48342323,
0.08416666836,24.17868423,
0.08583333343,24.26448822,
0.08749999851,23.64030266,
0.08916666359,23.96940804,
0.09083333611,24.10140419,
0.09250000119,24.28263855,
0.09416666627,23.91609383,
0.09583333135,24.17406273,
0.09749999642,23.75061798,
0.09916666895,24.3833046,
0.100833334,23.56764984,
0.1024999991,24.19657898,
0.1041666642,24.21856499,
0.1058333293,24.06775856,
0.1075000018,24.16004372,
0.1091666669,23.98367882,
0.1108333319,24.24238968,
0.112499997,24.21643448,
0.1141666621,23.93656731,
0.1158333346,24.19039345,
0.1174999997,23.62934303,
0.1191666648,24.39544106,
0.1208333299,23.96006966,
0.1224999949,24.2961998,
0.1241666749,24.22143364,
0.1258333325,23.85995865,
0.1274999976,23.96773529,
0.1291666627,24.14830399,
0.1308333278,24.06454659,
0.1325000077,24.14600563,
0.1341666728,24.3682518,
0.1358333379,24.12170601,
0.137500003,24.30798721,
0.1391666681,23.69831085,
0.1408333331,23.85184288,
0.1424999982,24.34505081,
0.1441666782,24.17794991,
0.1458333284,23.92581367,
0.1475000083,23.8649826,
0.1491666585,23.98699379,
0.1508333385,23.46409035,
0.1525000036,24.22268677,
0.1541666687,23.96419716,
0.1558333337,24.61964989,
0.1574999988,24.01122475,
0.1591666639,24.05728531,
0.1608333439,24.09901047,
0.162499994,24.43827629,
0.164166674,24.28852272,
0.1658333242,24.04107666,
0.1675000042,24.24856949,
0.1691666692,24.05534554,
0.1708333343,23.96782303,
0.1724999994,23.7923317,
0.1741666645,24.42629051,
0.1758333296,24.36965179,
0.1775000095,23.73880386,
0.1791666597,24.24116707,
0.1808333397,23.58835793,
0.1824999899,24.03384972,
0.1841666698,24.61561966,
0.1858333498,24.09588623,
0.1875,24.44549179,
0.18916668,24.03529358,
0.1908333302,24.33167839,
0.1925000101,24.15049171,
0.1941666752,23.7767067,
0.1958333403,24.06159782,
0.1975000054,24.37067413,
0.1991666704,24.21952438,
0.2008333355,23.98892212,
0.2025000155,24.26847458,
0.2041666657,23.76864052,
0.2058333457,24.18328667,
0.2074999958,23.78050232,
0.2091666758,24.1914978,
0.2108333409,24.25634193,
0.212500006,24.0360775,
0.214166671,23.92261696,
0.2158333361,23.98026085,
0.2175000012,23.84589767,
0.2191666812,23.77501106,
0.2208333313,24.30342865,
0.2225000113,24.19161415,
0.2241666615,23.77710724,
0.2258333415,23.9446106,
0.2275000066,23.95414162,
0.2291666716,23.99834633,
0.2308333367,23.85084915,
0.2325000018,24.24086761,
0.2341666669,24.03918839,
0.2358333468,24.25664711,
0.237499997,24.17754745,
0.239166677,24.48480225,
0.2408333272,24.26948929,
0.2425000072,23.94751167,
0.2441666722,23.89982033,
0.2458333373,24.45072937,
0.2475000024,24.12985039,
0.2491666675,24.03991699,
0.2508333325,24.15456009,
0.2524999976,24.20008087,
0.2541666627,24.00261497,
0.2558333278,24.08593559,
0.2574999928,23.87966156,
0.2591666579,23.81146431,
0.2608333528,24.21924782,
0.2624999881,24.069067,
0.264166683,23.93802261,
0.2658333182,24.05821419,
0.2675000131,23.96466637,
0.2691666484,24.21584702,
0.2708333433,23.61914063,
0.2725000083,23.84799194,
0.2741666734,24.3191452,
0.2758333385,23.9003315,
0.2775000036,23.96534729,
0.2791666687,24.28758621,
0.2808333337,24.03787231,
0.2824999988,23.88011932,
0.2841666937,24.03016281,
0.285833329,24.18118477,
0.287499994,23.88179016,
0.2891666591,24.03406143,
0.290833354,24.80163765,
0.2925000191,23.86697388,
0.2941666543,23.73067093,
0.2958333194,23.90715218,
0.2975000143,23.99824333,
0.2991666794,23.67341614,
0.3008333445,23.91263199,
0.3024999797,23.87257004,
0.3041666746,23.76469994,
0.3058333397,24.10721588,
0.3075000048,23.84839058,
0.3091666996,24.57991028,
0.3108333349,23.89490509,
0.3125,23.44835472,
0.3141666651,23.66926575,
0.31583336,24.01613426,
0.317500025,23.75887871,
0.3191666603,24.19233894,
0.3208333254,23.71835518,
0.3225000203,23.81829262,
0.3241666853,23.9034214,
0.3258333504,23.92276573,
0.3274999857,24.09807587,
0.3291666806,24.63226318,
0.3308333457,23.46156693,
0.3325000107,23.9275341,
0.3341666758,23.81835747,
0.3358333409,24.03507805,
0.337500006,24.07565689,
0.339166671,23.89501762,
0.3408333361,24.20166588,
0.342500031,24.40579987,
0.3441666663,23.7760582,
0.3458333313,24.18290138,
0.3474999964,24.02878761,
0.3491666913,23.82669067,
0.3508333564,23.85457802,
0.3524999917,24.23404121,
0.3541666567,23.83161736,
0.3558333516,24.01706314,
0.3575000167,23.52494812,
0.3591666818,24.19246674,
0.360833317,23.94595528,
0.3625000119,23.78765488,
0.364166677,24.24627686,
0.3658333421,24.27314377,
0.3675000072,24.33101273,
0.3691666722,23.63129425,
0.3708333373,24.05641174,
0.3725000024,24.30606461,
0.3741666675,24.05043411,
0.3758333623,24.25512505,
0.3774999976,24.25037575,
0.3791666627,23.69574738,
0.3808333278,24.11402702,
0.3825000226,24.1127739,
0.3841666877,23.77503014,
0.385833323,23.93186378,
0.3874999881,23.90543556,
0.389166683,23.76557541,
0.390833348,24.02809334,
0.3925000131,23.82564735,
0.3941666484,24.11170578,
0.3958333433,24.03109932,
0.3975000083,23.79754639,
0.3991666734,23.34876251,
0.4008333385,23.63285255,
0.4025000036,23.7987175,
0.4041666687,24.0721817,
0.4058333337,23.88692093,
0.4074999988,24.22294426,
0.4091666937,24.09758568,
0.410833329,23.63328171,
0.412499994,24.1699791,
0.4141666591,23.85661125,
0.415833354,24.05548096,
0.4175000191,24.03685188,
0.4191666543,23.9277916,
0.4208333194,23.49611282,
0.4225000143,24.38027573,
0.4241666794,24.06484985,
0.4258333445,23.88653755,
0.4274999797,23.72991943,
0.4291666746,23.70140457,
0.4308333397,23.59592247,
0.4325000048,23.98732567,
0.4341666996,23.66125488,
0.4358333349,23.80245781,
0.4375,24.38894844,
0.4391666651,24.16846466,
0.44083336,24.23854828,
0.442500025,23.57381058,
0.4441666603,24.27631569,
0.4458333254,23.71518326,
0.4475000203,23.98729324,
0.4491666853,24.20230484,
0.4508333504,23.841465,
0.4524999857,23.9013195,
0.4541666806,24.12631798,
0.4558333457,23.80561447,
0.4575000107,23.93453026,
0.4591666758,23.96954727,
0.4608333409,24.56065559,
0.462500006,23.56629181,
0.464166671,24.24038315,
0.4658333361,24.24514198,
0.467500031,23.9306469,
0.4691666663,24.00821495,
0.4708333313,24.01207924,
0.4724999964,24.30508614,
0.4741666913,23.90169907,
0.4758333564,23.94861603,
0.4774999917,23.75234413,
0.4791666567,23.9476738,
0.4808333516,24.35751534,
0.4825000167,23.45792961,
0.4841666818,23.98400688,
0.485833317,24.20149231,
0.4875000119,23.80007744,
0.489166677,24.01787186,
0.4908333421,24.04571724,
0.4925000072,24.15642166,
0.4941666722,24.26798439,
0.4958333373,24.36109924,
0.4975000024,23.96041298,
0.4991666675,24.61936378,
0.5008333325,24.21186638,
0.5024999976,24.12678146,
0.5041666627,24.49148369,
0.5058333278,23.82896805,
0.5074999928,23.62589073,
0.5091666579,24.32056808,
0.510833323,23.85837173,
0.5124999881,24.36689186,
0.5141666532,24.44564819,
0.5158333182,23.83485603,
0.5175000429,24.04898262,
0.5191666484,24.26945496,
0.5208333135,23.83713722,
0.5224999785,23.59525871,
0.5241667032,23.84014511,
0.5258333683,24.12393188,
0.5274999738,23.71074677,
0.5291666389,23.86785889,
0.5308333635,23.67485046,
0.5325000286,24.30294991,
0.5341666341,24.0708828,
0.5358333588,24.07223511,
0.5375000238,24.41417885,
0.5391666889,23.84749794,
0.540833354,23.86884689,
0.5424999595,23.96988487,
0.5441666842,24.10900688,
0.5458333492,24.1542778,
0.5475000143,23.76795959,
0.5491666794,24.36536217,
0.5508333445,24.53609657,
0.5525000095,24.06880569,
0.5541666746,24.25803947,
0.5558333993,23.78936577,
0.5575000048,24.5568161,
0.5591666698,24.14134789,
0.5608333349,23.58869553,
0.5625,23.5436306,
0.5641667247,23.70119476,
0.5658333302,23.79842949,
0.5674999952,24.08600998,
0.5691667199,23.77019119,
0.5708333254,23.90754128,
0.5725000501,23.90040016,
0.5741666555,23.7125721,
0.5758333206,23.63142586,
0.5775000453,24.32784462,
0.5791666508,24.03974915,
0.5808333755,23.81632423,
0.5825000405,24.09300995,
0.584166646,24.21937943,
0.5858333707,23.69876671,
0.5874999762,24.09067726,
0.5891667008,24.03281784,
0.5908333659,23.98687935,
0.5924999714,23.3150959,
0.5941666961,23.71170807,
0.5958333611,23.8501358,
0.5975000262,23.87567902,
0.5991666913,24.18178368,
0.6008332968,23.63925552,
0.6025000215,23.45859146,
0.6041666865,23.73604012,
0.6058333516,23.79302788,
0.6075000167,23.98308182,
0.6091666818,23.99513817,
0.6108333468,24.19273376,
0.6125000119,23.89726257,
0.614166677,23.709692,
0.6158333421,24.13799095,
0.6175000072,24.27264595,
0.6191666722,24.21086693,
0.6208333373,23.85855484,
0.622500062,24.36927414,
0.6241666675,23.7595787,
0.6258333325,24.29500389,
0.6274999976,23.85624695,
0.6291666627,24.21151733,
0.6308333874,23.61333847,
0.6324999928,23.85033417,
0.6341666579,24.32009888,
0.6358333826,24.09583282,
0.6374999881,23.84731102,
0.6391667128,23.99901962,
0.6408333182,24.00433922,
0.6424999833,24.19117546,
0.644166708,24.08836365,
0.6458333135,24.23154831,
0.6475000381,23.90480995,
0.6491667032,23.59347534,
0.6508333087,23.60089493,
0.6525000334,23.76651764,
0.6541666389,23.88166618,
0.6558333635,23.30949593,
0.6575000286,24.15878296,
0.6591666341,24.00082588,
0.6608333588,24.43230247,
0.6625000238,23.90876579,
0.6641666889,23.85168076,
0.665833354,23.97889709,
0.6674999595,23.83633232,
0.6691666842,23.94801521,
0.6708333492,24.23524284,
0.6725000143,23.61097336,
0.6741666794,24.20172882,
0.6758333445,23.95526123,
0.6775000095,23.74642372,
0.6791666746,23.96590233,
0.6808333993,23.86351585,
0.6825000048,23.98638916,
0.6841666698,24.03669357,
0.6858333349,24.3429203,
0.6875,23.90048409,
0.6891667247,23.84186745,
0.6908333302,23.95574188,
0.6924999952,24.26418114,
0.6941667199,24.06608963,
0.6958333254,23.94880295,
0.6975000501,23.7442379,
0.6991666555,24.09875679,
0.7008333206,24.14957428,
0.7025000453,23.78943062,
0.7041666508,23.85133934,
0.7058333755,24.16455841,
0.7075000405,24.37059975,
0.709166646,23.9345932,
0.7108333707,24.02139854,
0.7124999762,24.18188477,
0.7141667008,24.16632462,
0.7158333659,23.73505592,
0.7174999714,23.93425941,
0.7191666961,23.90487099,
0.7208333611,24.13058472,
0.7225000262,24.06779289,
0.7241666913,23.42411613,
0.7258332968,24.29557037,
0.7275000215,24.05767059,
0.7291666865,24.1014576,
0.7308333516,24.07634735,
0.7325000167,23.52656937,
0.7341666818,23.56659889,
0.7358333468,24.03910637,
0.7375000119,24.1728878,
0.739166677,23.80390739,
0.7408333421,23.96101379,
0.7425000072,23.88476753,
0.7441666722,23.61524773,
0.7458333373,23.75239182,
0.747500062,23.88913727,
0.7491666675,23.81272697,
0.7508333325,23.80700874,
0.7524999976,24.09532928,
0.7541666627,23.51504898,
0.7558333874,24.08386612,
0.7574999928,24.52975464,
0.7591666579,24.31611061,
0.7608333826,23.72090912,
0.7624999881,24.07617378,
0.7641667128,23.84990692,
0.7658333182,23.73772049,
0.7674999833,24.32176208,
0.769166708,23.91364288,
0.7708333135,24.3574276,
0.7725000381,23.91229057,
0.7741667032,24.00716972,
0.7758333087,23.92096329,
0.7775000334,23.8872509,
0.7791666389,24.29576683,
0.7808333635,24.38294601,
0.7825000286,23.98613358,
0.7841666341,24.17528725,
0.7858333588,24.07744408,
0.7875000238,23.90768623,
0.7891666889,24.10780907,
0.790833354,24.12446404,
0.7924999595,24.2306118,
0.7941666842,23.87548447,
0.7958333492,23.8319397,
0.7975000143,23.73395729,
0.7991666794,24.05815697,
0.8008333445,23.85620308,
0.8025000095,23.86983681,
0.8041666746,23.94368744,
0.8058333993,23.39930916,
0.8075000048,24.09830666,
0.8091666698,23.90828133,
0.8108333349,23.90577698,
0.8125,23.99041367,
0.8141667247,23.89365005,
0.8158333302,23.88155365,
0.8174999952,23.75568962,
0.8191667199,24.22655869,
0.8208333254,24.2991848,
0.8225000501,24.24057007,
0.8241666555,24.08831024,
0.8258333206,24.02088356,
0.8275000453,23.7756176,
0.8291666508,24.09581375,
0.8308333755,23.62079239,
0.8325000405,24.13568497,
0.834166646,24.11630249,
0.8358333707,23.75260735,
0.8374999762,24.09914017,
0.8391667008,23.85885429,
0.8408333659,24.00400352,
0.8424999714,23.80841064,
0.8441666961,23.63154411,
0.8458333611,23.91864395,
0.8475000262,23.98965645,
0.8491666913,23.91894531,
0.8508332968,24.28164101,
0.8525000215,24.49858856,
0.8541666865,23.63110352,
0.8558333516,24.22092819,
0.8575000167,23.46071815,
0.8591666818,24.43855476,
0.8608333468,23.81515694,
0.8625000119,23.97615814,
0.864166677,24.21048355,
0.8658333421,23.8584156,
0.8675000072,24.10694695,
0.8691666722,24.50640297,
0.8708333373,23.69737434,
0.872500062,24.06761932,
0.8741666675,23.82226563,
0.8758333325,23.98953247,
0.8774999976,23.80266571,
0.8791666627,23.91478157,
0.8808333874,24.14828873,
0.8824999928,24.05514336,
0.8841666579,23.95315552,
0.8858333826,24.2170887,
0.8874999881,23.88063049,
0.8891667128,24.32721519,
0.8908333182,23.67625046,
0.8924999833,24.4605484,
0.894166708,23.76397896,
0.8958333135,23.64530754,
0.8975000381,24.16389465,
0.8991667032,24.15904427,
0.9008333087,23.88433266,
0.9025000334,23.80717087,
0.9041666389,24.20344734,
0.9058333635,24.15254593,
0.9075000286,24.18845558,
0.9091666341,23.75065422,
0.9108333588,24.01544952,
0.9125000238,23.58493233,
0.9141666889,24.08760834,
0.915833354,23.96885872,
0.9174999595,23.95471191,
0.9191666842,23.75340843,
0.9208333492,23.59070015,
0.9225000143,23.97888565,
0.9241666794,24.10061646,
0.9258333445,23.90624237,
0.9275000095,24.00235367,
0.9291666746,23.24012184,
0.9308333993,23.44329453,
0.9325000048,24.20369339,
0.9341666698,23.73608208,
0.9358333349,24.17316818,
0.9375,23.74053574,
0.9391667247,23.69825172,
0.9408333302,23.93387222,
0.9424999952,24.08029175,
0.9441667199,23.94062042,
0.9458333254,24.04830551,
0.9475000501,23.4147644,
0.9491666555,23.89849663,
0.9508333206,23.93078041,
0.9525000453,23.92513847,
0.9541666508,24.0051651,
0.9558333755,23.93543816,
0.9575000405,23.94841766,
0.959166646,24.43230247,
0.9608333707,24.08678818,
0.9624999762,24.00580597,
0.9641667008,23.61424065,
0.9658333659,24.30529213,
0.9674999714,23.91200829,
0.9691666961,23.97907257,
0.9708333611,24.01835823,
0.9725000262,23.79497147,
0.9741666913,23.86983681,
0.9758332968,24.02848244,
0.9775000215,24.13771248,
0.9791666865,24.22763062,
0.9808333516,24.08104134,
0.9825000167,24.10163116,
0.9841666818,24.1683197,
0.9858333468,23.85108948,
0.9875000119,23.73356628,
0.989166677,24.2601223,
0.9908333421,23.94347382,
0.9925000072,23.72851753,
0.9941666722,23.62691116,
0.9958333373,24.11464119,
0.997500062,24.13187218,
0.9991666675,23.8747139,
1.000833273,23.87746429,
1.002500057,23.77129173,
1.004166722,23.73047638,
1.005833387,23.9882679,
1.007500052,23.668396,
1.009166598,23.78223801,
1.010833383,23.633461,
1.012500048,24.25487137,
1.014166713,23.84460258,
1.015833378,23.65961456,
1.017500043,24.13953972,
1.019166708,24.09827995,
1.020833373,23.88589668,
1.022500038,24.29490852,
1.024166703,23.61077118,
1.025833368,24.25562096,
1.027500033,24.241436,
1.029166698,24.40659714,
1.030833364,23.88624763,
1.032500029,23.69256592,
1.034166694,24.05060959,
1.035833359,23.87299156,
1.037500024,23.66341209,
1.039166689,23.97132874,
1.040833354,24.33255386,
1.042500019,23.83138466,
1.044166684,23.5678215,
1.045833349,24.0158596,
1.047500014,24.13900185,
1.049166679,23.90743065,
1.050833344,23.74193382,
1.05250001,23.92915726,
1.054166675,23.69699287,
1.05583334,23.89440727,
1.057500005,24.10840607,
1.05916667,23.6426754,
1.060833335,23.81077385,
1.0625,23.53730011,
1.064166665,24.1292572,
1.06583333,25.32636261,
1.067499995,26.30628967,
1.06916666,26.45076752,
1.070833325,24.40193939,
1.07249999,28.34305,
1.074166775,30.76439857,
1.07583344,39.27219772,
1.077499986,33.12775421,
1.079166651,44.7758522,
1.080833316,36.61255264,
1.0825001,46.53559113,
1.084166765,40.83864594,
1.085833311,44.20735168,
1.087499976,55.0806694,
1.089166641,49.49312973,
1.090833426,53.29608154,
1.092500091,54.44550705,
1.094166636,56.05734634,
1.095833302,58.53564072,
1.097499967,60.16445923,
1.099166751,62.32535172,
1.100833416,63.76358795,
1.102500081,65.59128571,
1.104166627,67.1240921,
1.105833292,67.99756622,
1.107500076,69.72509003,
1.109166741,71.91740417,
1.110833406,72.90202332,
1.112499952,74.54158783,
1.114166617,75.40454102,
1.115833402,76.83239746,
1.117500067,78.82394409,
1.119166732,80.27178955,
1.120833278,80.99087524,
1.122499943,82.18260956,
1.124166727,82.95641327,
1.125833392,84.69824219,
1.127500057,86.71224213,
1.129166722,86.97992706,
1.130833268,88.96495819,
1.132500052,89.65913391,
1.134166718,90.42636871,
1.135833383,92.18370056,
1.137500048,92.98651123,
1.139166594,93.72511292,
1.140833378,94.83068085,
1.142500043,96.06278229,
1.144166708,95.78507996,
1.145833373,97.5460434,
1.147499919,97.80513763,
1.149166703,98.09176636,
1.150833368,100.5510712,
1.152500033,101.0488358,
1.154166698,101.8176041,
1.155833364,102.7674332,
1.157500029,103.9837494,
1.159166694,105.236412,
1.160833359,105.4406204,
1.162500024,107.0381012,
1.164166689,106.5312729,
1.165833354,106.6355896,
1.167500019,108.5967331,
1.169166684,108.9787369,
1.170833349,109.6605759,
1.172500014,110.2917709,
1.174166799,111.2165298,
1.175833344,111.1130753,
1.17750001,112.3778915,
1.179166675,113.0099106,
1.18083334,113.9050369,
1.182500124,112.928833,
1.18416667,114.4092865,
1.185833335,115.5182648,
1.1875,116.5329895,
1.189166665,116.8447571,
1.190833449,117.0822067,
1.192499995,118.1116409,
1.19416666,118.0733948,
1.195833325,119.2089539,
1.19749999,119.1884384,
1.199166775,119.3882599,
1.20083344,120.3002625,
1.202499986,121.289299,
1.204166651,121.7981949,
1.205833316,121.8792343,
1.2075001,122.2444611,
1.209166765,124.3397827,
1.210833311,123.8536911,
1.212499976,124.3416595,
1.214166641,125.2784576,
1.215833426,124.9204559,
1.217500091,125.4114532,
1.219166636,126.9391174,
1.220833302,127.2459335,
1.222499967,126.4992371,
1.224166751,127.1268539,
1.225833416,127.257782,
1.227500081,128.5075531,
1.229166627,129.0128174,
1.230833292,128.5353088,
1.232500076,129.9101563,
1.234166741,130.2744598,
1.235833406,130.2634277,
1.237499952,130.9527283,
1.239166617,131.8478394,
1.240833402,131.6102142,
1.242500067,132.4567871,
1.244166732,132.6046295,
1.245833278,132.3285828,
1.247499943,133.9126129,
1.249166727,133.7949219,
1.250833392,134.9528046,
1.252500057,135.2343292,
1.254166722,135.1991425,
1.255833268,134.9353485,
1.257500052,135.3979797,
1.259166718,135.2951508,
1.260833383,136.0864105,
1.262500048,137.6411896,
1.264166594,137.070343,
1.265833378,136.9571228,
1.267500043,137.1684875,
1.269166708,138.7532043,
1.270833373,138.9578552,
1.272499919,138.3754272,
1.274166703,138.9930267,
1.275833368,138.9955597,
1.277500033,139.9773102,
1.279166698,140.1681671,
1.280833364,139.994873,
1.282500029,139.859848,
1.284166694,140.7338409,
1.285833359,142.4652405,
1.287500024,141.3066711,
1.289166689,140.8202667,
1.290833354,142.1265717,
1.292500019,142.0980682,
1.294166684,142.8152466,
1.295833349,143.258255,
1.297500014,142.8923798,
1.299166799,142.7481995,
1.300833344,143.0451813,
1.30250001,143.3469238,
1.304166675,143.5760498,
1.30583334,143.5428772,
1.307500124,144.9235382,
1.30916667,144.9313354,
1.310833335,143.7353363,
1.3125,145.6643372,
1.314166665,145.851944,
1.315833449,146.0375366,
1.317499995,147.5659943,
1.31916666,146.8011932,
1.320833325,146.8844299,
1.32249999,148.2129211,
1.324166775,147.1750336,
1.32583344,147.7395172,
1.327499986,147.4682617,
1.329166651,148.2684784,
1.330833316,147.6322174,
1.3325001,148.0636597,
1.334166765,149.4213715,
1.335833311,148.0695648,
1.337499976,148.2711182,
1.339166641,148.1949005,
1.340833426,148.9997559,
1.342500091,149.3474884,
1.344166636,150.719635,
1.345833302,150.3292084,
1.347499967,149.5680847,
1.349166751,149.9534607,
1.350833416,150.2166138,
1.352500081,151.9494324,
1.354166627,151.4514923,
1.355833292,151.5380096,
1.357500076,150.7253113,
1.359166741,151.5970612,
1.360833406,151.8456573,
1.362499952,151.9463959,
1.364166617,151.8962555,
1.365833402,153.701004,
1.367500067,151.9325714,
1.369166732,152.3438416,
1.370833278,151.1913452,
1.372499943,153.9072418,
1.374166727,153.9470673,
1.375833392,153.6057739,
1.377500057,153.2533264,
1.379166722,154.569519,
1.380833268,154.2339172,
1.382500052,153.6645966,
1.384166718,153.938736,
1.385833383,154.0251312,
1.387500048,154.0355988,
1.389166594,154.6168823,
1.390833378,155.0172882,
1.392500043,155.4106598,
1.394166708,156.4450989,
1.395833373,155.0738678,
1.397499919,155.3261261,
1.399166703,156.481369,
1.400833368,155.664917,
1.402500033,155.1134796,
1.404166698,156.9820099,
1.405833364,156.7423706,
1.407500029,157.5411682,
1.409166694,156.5046387,
1.410833359,156.7527008,
1.412500024,156.1815033,
1.414166689,157.4086151,
1.415833354,157.7884674,
1.417500019,157.1249237,
1.419166684,157.6700287,
1.420833349,157.131073,
1.422500014,157.9607544,
1.424166799,159.3366852,
1.425833344,156.6775055,
1.42750001,158.0924072,
1.429166675,159.2172394,
1.43083334,159.89151,
1.432500124,158.5527496,
1.43416667,158.7298737,
1.435833335,159.9289703,
1.4375,159.4039917,
1.439166665,157.3476868,
1.440833449,158.1096954,
1.442499995,159.3384857,
1.44416666,159.5435486,
1.445833325,159.9208679,
1.44749999,159.6472015,
1.449166775,161.3389587,
1.45083344,159.8873138,
1.452499986,160.4799957,
1.454166651,160.5197296,
1.455833316,160.4985046,
1.4575001,160.831955,
1.459166765,160.0436401,
1.460833311,160.4210358,
1.462499976,161.3066559,
1.464166641,161.2794037,
1.465833426,161.3343658,
1.467500091,160.778656,
1.469166636,161.4266052,
1.470833302,161.6599731,
1.472499967,161.2112122,
1.474166751,161.4502258,
1.475833416,161.9561157,
1.477500081,161.3426666,
1.479166627,161.8556061,
1.480833292,161.0095673,
1.482500076,162.2319183,
1.484166741,162.1610565,
1.485833406,161.7411652,
1.487499952,162.4226837,
1.489166617,161.7552338,
1.490833402,162.1088867,
1.492500067,162.9228668,
1.494166732,163.4187622,
1.495833278,163.374176,
1.497499943,163.5588379,
1.499166727,162.4496002,
1.500833392,164.6382294,
1.502500057,163.8484955,
1.504166722,164.8340149,
1.505833268,162.0601959,
1.507500052,164.0333405,
1.509166718,163.9639282,
1.510833383,163.5741425,
1.512500048,164.0609436,
1.514166594,164.9786072,
1.515833378,164.8689423,
1.517500043,165.019043,
1.519166708,163.1609802,
1.520833373,165.0299683,
1.522499919,165.7197418,
1.524166703,164.931839,
1.525833368,164.6569214,
1.527500033,165.8445282,
1.529166698,164.7510529,
1.530833364,165.7882233,
1.532500029,165.4464417,
1.534166694,165.4626465,
1.535833359,165.1024628,
1.537500024,166.1682739,
1.539166689,166.1924744,
1.540833354,164.9462891,
1.542500019,164.8169708,
1.544166684,165.6035614,
1.545833349,166.1138763,
1.547500014,166.063324,
1.549166799,166.570816,
1.550833344,166.9233246,
1.55250001,166.6872101,
1.554166675,165.4845276,
1.55583334,166.9891968,
1.557500124,165.9960175,
1.55916667,166.5399475,
1.560833335,167.1332092,
1.5625,167.4525146,
1.564166665,165.7811584,
1.565833449,168.6031494,
1.567499995,167.8056793,
1.56916666,167.5924377,
1.570833325,167.1349182,
1.57249999,167.7797852,
1.574166775,166.7016602,
1.57583344,168.7809601,
1.577499986,166.9262543,
1.579166651,168.2594147,
1.580833316,167.334549,
1.5825001,168.4223938,
1.584166765,166.898056,
1.585833311,168.2584991,
1.587499976,167.926651,
1.589166641,168.0466461,
1.590833426,167.1372986,
1.592500091,166.9058075,
1.594166636,168.5546875,
1.595833302,168.9576874,
1.597499967,169.0746918,
1.599166751,168.1626129,
1.600833416,168.070282,
1.602500081,167.723526,
1.604166627,168.346405,
1.605833292,167.8749237,
1.607500076,168.8983917,
1.609166741,168.3187256,
1.610833406,169.3591309,
1.612499952,169.8485413,
1.614166617,168.4306641,
1.615833402,168.7154999,
1.617500067,170.1118774,
1.619166732,168.6118011,
1.620833278,169.7275238,
1.622499943,168.15271,
1.624166727,169.8467712,
1.625833392,169.0602112,
1.627500057,169.7145538,
1.629166722,169.8121033,
1.630833268,170.4354706,
1.632500052,169.2649994,
1.634166718,170.046936,
1.635833383,171.3475037,
1.637500048,169.8364716,
1.639166594,170.2203674,
1.640833378,169.2536774,
1.642500043,169.7120667,
1.644166708,170.4333191,
1.645833373,170.2536469,
1.647499919,169.2347107,
1.649166703,169.6094055,
1.650833368,170.282608,
1.652500033,170.943512,
1.654166698,170.5612183,
1.655833364,170.8336792,
1.657500029,171.217804,
1.659166694,170.3702393,
1.660833359,171.6542511,
1.662500024,170.8486176,
1.664166689,171.2763519,
1.665833354,170.0604858,
1.667500019,170.9792328,
1.669166684,170.7954407,
1.670833349,171.8855286,
1.672500014,171.5892944,
1.674166799,171.8829498,
1.675833344,170.5591125,
1.67750001,171.3946686,
1.679166675,170.891037,
1.68083334,170.2668762,
1.682500124,171.2625732,
1.68416667,171.1520386,
1.685833335,170.5040588,
1.6875,171.0251617,
1.689166665,171.5934448,
1.690833449,172.0844116,
1.692499995,171.3432159,
1.69416666,170.4833679,
1.695833325,171.6229858,
1.69749999,171.9875946,
1.699166775,173.2759399,
1.70083344,171.6668396,
1.702499986,172.7046051,
1.704166651,171.6369019,
1.705833316,170.8276215,
1.7075001,171.9300079,
1.709166765,173.2734375,
1.710833311,172.2176514,
1.712499976,173.3417358,
1.714166641,173.115448,
1.715833426,172.0377808,
1.717500091,172.5705566,
1.719166636,173.4682617,
1.720833302,172.9862213,
1.722499967,173.5849609,
1.724166751,173.1936951,
1.725833416,172.406311,
1.727500081,172.1872864,
1.729166627,173.0349274,
1.730833292,172.7720795,
1.732500076,174.3591309,
1.734166741,172.7044678,
1.735833406,172.5937347,
1.737499952,173.5107269,
1.739166617,173.9389496,
1.740833402,173.597229,
1.742500067,173.4114075,
1.744166732,172.7437134,
1.745833278,172.2386169,
1.747499943,172.9909363,
1.749166727,173.2211761,
1.750833392,173.6296082,
1.752500057,172.2045593,
1.754166722,175.0718994,
1.755833268,174.3611755,
1.757500052,173.7116547,
1.759166718,173.4245453,
1.760833383,172.9745026,
1.762500048,175.7612,
1.764166594,173.9161072,
1.765833378,175.0960999,
1.767500043,174.3519287,
1.769166708,173.4748077,
1.770833373,173.6996765,
1.772499919,173.7356262,
1.774166703,174.6047363,
1.775833368,174.4192047,
1.777500033,173.9969788,
1.779166698,173.6715088,
1.780833364,174.6087494,
1.782500029,174.5724335,
1.784166694,173.6847382,
1.785833359,174.1286011,
1.787500024,174.8822937,
1.789166689,173.5415802,
1.790833354,174.5501404,
1.792500019,173.7837982,
1.794166684,174.9588623,
1.795833349,174.5402679,
1.797500014,173.4137268,
1.799166799,176.3000336,
1.800833344,173.9918976,
1.80250001,174.3669434,
1.804166675,173.4532471,
1.80583334,174.265274,
1.807500124,175.6886597,
1.80916667,176.2843018,
1.810833335,175.4445648,
1.8125,175.1958771,
1.814166665,174.093689,
1.815833449,173.1318512,
1.817499995,176.3302765,
1.81916666,175.6821747,
1.820833325,174.6467896,
1.82249999,174.6370087,
1.824166775,174.4366608,
1.82583344,175.908371,
1.827499986,174.8667145,
1.829166651,175.9299469,
1.830833316,175.8437805,
1.8325001,176.0346985,
1.834166765,175.98703,
1.835833311,176.1430511,
1.837499976,175.6515503,
1.839166641,175.7210846,
1.840833426,175.6764679,
1.842500091,176.9033508,
1.844166636,177.068924,
1.845833302,175.3690948,
1.847499967,175.5473175,
1.849166751,175.6447906,
1.850833416,175.9979706,
1.852500081,175.4442291,
1.854166627,176.3388062,
1.855833292,176.9263611,
1.857500076,175.5782318,
1.859166741,175.237915,
1.860833406,176.2951355,
1.862499952,175.2226715,
1.864166617,176.8667603,
1.865833402,176.0038757,
1.867500067,175.9585266,
1.869166732,176.2376404,
1.870833278,175.103714,
1.872499943,176.0634613,
1.874166727,176.6114044,
1.875833392,176.8278503,
1.877500057,175.7223969,
1.879166722,176.6548157,
1.880833268,176.4535675,
1.882500052,175.1894531,
1.884166718,175.923111,
1.885833383,176.8625336,
1.887500048,176.9425354,
1.889166594,176.6581116,
1.890833378,176.288681,
1.892500043,177.0875397,
1.894166708,177.0522614,
1.895833373,175.1797638,
1.897499919,177.5359039,
1.899166703,177.3600159,
1.900833368,177.655426,
1.902500033,176.5390625,
1.904166698,177.6229095,
1.905833364,178.6898041,
1.907500029,176.920105,
1.909166694,177.2607117,
1.910833359,176.3456726,
1.912500024,176.3326569,
1.914166689,176.4088135,
1.915833354,176.8065796,
1.917500019,176.5207367,
1.919166684,176.0552368,
1.920833349,177.5052795,
1.922500014,176.9067993,
1.924166799,177.7393951,
1.925833344,177.3646393,
1.92750001,175.7688599,
1.929166675,178.3285217,
1.93083334,176.4042358,
1.932500124,176.5002594,
1.93416667,177.2949677,
1.935833335,177.3609009,
1.9375,176.2549438,
1.939166665,176.8594666,
1.940833449,178.482666,
1.942499995,178.3636322,
1.94416666,177.3732147,
1.945833325,177.7989807,
1.94749999,176.6473999,
1.949166775,177.5107727,
1.95083344,177.5792999,
1.952499986,177.3128357,
1.954166651,177.5764923,
1.955833316,177.7964172,
1.9575001,177.3974762,
1.959166765,175.7723236,
1.960833311,176.7561035,
1.962499976,176.7796783,
1.964166641,178.4612885,
1.965833426,179.2340393,
1.967500091,175.9064789,
1.969166636,178.364624,
1.970833302,177.0001526,
1.972499967,177.4692841,
1.974166751,177.6634064,
1.975833416,177.8749084,
1.977500081,176.3404999,
1.979166627,178.1962128,
1.980833292,178.6723633,
1.982500076,176.8460999,
1.984166741,179.1988525,
1.985833406,178.4742126,
1.987499952,177.5866241,
1.989166617,177.7519531,
1.990833402,180.2593842,
1.992500067,177.6720123,
1.994166732,176.2393799,
1.995833278,178.9065247,
1.997499943,177.388092,
1.999166727,177.3939667,
2.000833273,177.56604,
2.002500057,178.2704773,
2.004166603,179.5313873,
2.005833387,178.3505859,
2.007500172,179.3794708,
2.009166718,179.2814178,
2.010833263,178.7588654,
2.012500048,178.1054077,
2.014166594,178.5662994,
2.015833378,178.4658966,
2.017500162,177.9583893,
2.019166708,178.8614502,
2.020833254,178.7124634,
2.022500038,178.5574646,
2.024166822,179.3876343,
2.025833368,179.0521851,
2.027499914,179.3165283,
2.029166698,179.3147736,
2.030833244,177.5843353,
2.032500029,178.6266174,
2.034166813,179.2914734,
2.035833359,178.3317261,
2.037499905,179.3072052,
2.039166689,178.2351227,
2.040833473,178.5970459,
2.042500019,179.5088196,
2.044166803,178.6708221,
2.045833349,179.791153,
2.047499895,177.1106567,
2.049166679,180.2342529,
2.050833464,178.5962982,
2.05250001,178.0953369,
2.054166555,178.737854,
2.05583334,181.2352295,
2.057500124,178.9343262,
2.05916667,179.4064636,
2.060833454,178.3977509,
2.0625,178.7347107,
2.064166546,179.3671875,
2.06583333,178.6329803,
2.067500114,178.9276276,
2.06916666,179.0490723,
2.070833445,178.6780396,
2.07249999,178.0825043,
2.074166775,179.1145325,
2.075833321,179.2952728,
2.077500105,178.7579803,
2.079166651,180.5033112,
2.080833197,177.982605,
2.082499981,179.3716583,
2.084166765,178.8009796,
2.085833311,179.6051331,
2.087500095,179.223053,
2.089166641,178.2929993,
2.090833426,179.149353,
2.092499971,180.202713,
2.094166756,180.3212891,
2.095833302,179.1795197,
2.097500086,178.8646393,
2.099166632,179.1042938,
2.100833416,180.1173859,
2.102499962,178.825882,
2.104166746,180.5265961,
2.105833292,179.6734619,
2.107500076,178.2802887,
2.109166622,179.5568695,
2.110833406,179.6899872,
2.112499952,181.2468109,
2.114166737,179.6764984,
2.115833521,179.2108612,
2.117500067,178.5964355,
2.119166613,180.1068726,
2.120833397,179.1372223,
2.122499943,179.6993713,
2.124166727,180.6346283,
2.125833273,180.0681458,
2.127500057,180.2717133,
2.129166603,178.197464,
2.130833387,179.081192,
2.132500172,180.0765839,
2.134166718,179.4810028,
2.135833502,179.6723328,
2.137500048,179.6210938,
2.139166832,180.6840973,
2.140833378,179.3948975,
2.142500162,179.9668579,
2.144166708,179.5439758,
2.145833254,179.7767944,
2.147500038,178.9051208,
2.149166584,178.6221466,
2.150833368,180.1499023,
2.152500153,178.9005432,
2.154166698,180.0182953,
2.155833483,178.8628845,
2.157500029,179.870285,
2.159166813,179.3626709,
2.160833597,180.4881744,
2.162499905,179.8696747,
2.164166689,179.8347473,
2.165833235,180.7415314,
2.167500019,179.9778595,
2.169166803,180.5622406,
2.170833349,179.7044678,
2.172500134,179.4751129,
2.174166679,178.9141235,
2.175833464,180.0825806,
2.177500248,180.0670929,
2.179166555,180.026886,
2.18083334,179.79599,
2.182499886,177.4943542,
2.18416667,179.9158173,
2.185833454,181.0223389,
2.1875,180.6936035,
2.189166784,179.7369385,
2.19083333,179.7307434,
2.192500114,179.8728485,
2.194166899,180.2340698,
2.195833445,180.0498352,
2.19749999,179.355896,
2.199166536,179.9792023,
2.200833321,181.0141602,
2.202500105,179.7724915,
2.204166651,180.4969177,
2.205833435,180.1042938,
2.207499981,179.8664703,
2.209166765,179.5926208,
2.210833549,179.6244049,
2.212500095,179.7112885,
2.21416688,180.4038086,
2.215833187,180.2750702,
2.217499971,179.2387848,
2.219166756,180.8022461,
2.220833302,179.8365326,
2.222500086,180.8838348,
2.224166632,181.0870209,
2.225833416,179.9685822,
2.2275002,179.376236,
2.229166746,179.6047211,
2.23083353,180.256958,
2.232499838,180.5789337,
2.234166622,180.0539398,
2.235833406,181.3674316,
2.237499952,180.0360107,
2.239166737,180.4169159,
2.240833282,179.6125793,
2.242500067,178.7767334,
2.244166851,180.8982849,
2.245833397,179.7831573,
2.247500181,180.9660187,
2.249166727,179.5829163,
2.250833273,179.3044586,
2.252500057,181.1852722,
2.254166603,179.8263855,
2.255833387,181.8407135,
2.257499933,180.090332,
2.259166718,181.2985687,
2.260833502,179.0230408,
2.262500048,180.6418762,
2.264166832,180.5022736,
2.265833378,180.0621948,
2.267500162,181.0632782,
2.269166708,179.7360992,
2.270833254,180.7222443,
2.272500038,180.5158386,
2.274166584,180.0197296,
2.275833368,182.0875244,
2.277500153,180.9417114,
2.279166698,180.2198792,
2.280833483,180.1471252,
2.282500029,179.186554,
2.284166813,181.3464661,
2.285833597,180.3071899,
2.287499905,180.2245026,
2.289166689,181.1048279,
2.290833235,180.7440186,
2.292500019,180.1845245,
2.294166803,181.4584045,
2.295833349,180.6957855,
2.297500134,180.6554108,
2.299166679,179.7134857,
2.300833464,181.0482788,
2.302500248,181.8652496,
2.304166555,180.2771149,
2.30583334,182.2929382,
2.307499886,180.3986511,
2.30916667,180.9084778,
2.310833454,180.3403778,
2.3125,181.3566895,
2.314166784,180.5541229,
2.31583333,179.6853333,
2.317500114,180.1187134,
2.319166899,179.950119,
2.320833445,180.5639191,
2.32249999,180.4104309,
2.324166536,180.4822388,
2.325833321,180.3179169,
2.327500105,180.7032471,
2.329166651,181.7286987,
2.330833435,179.4889679,
2.332499981,182.0314331,
2.334166765,181.5086823,
2.335833549,181.8435516,
2.337500095,179.9852753,
2.33916688,180.6685181,
2.340833187,181.6503143,
2.342499971,181.2787018,
2.344166756,181.6001587,
2.345833302,181.8792267,
2.347500086,181.1319885,
2.349166632,181.399765,
2.350833416,181.9118042,
2.3525002,180.2771149,
2.354166746,181.563797,
2.35583353,181.4223785,
2.357499838,180.7710419,
2.359166622,180.5792389,
2.360833406,182.0084076,
2.362499952,179.4808807,
2.364166737,181.6743927,
2.365833282,181.3703308,
2.367500067,181.7909546,
2.369166851,182.2691956,
2.370833397,181.4581604,
2.372500181,179.2495422,
2.374166727,180.7073059,
2.375833273,181.8389435,
2.377500057,180.6233063,
2.379166603,181.6307678,
2.380833387,182.5075684,
2.382499933,181.3918762,
2.384166718,181.3148804,
2.385833502,181.1476898,
2.387500048,179.6400604,
2.389166832,180.5545044,
2.390833378,181.0392761,
2.392500162,181.5291443,
2.394166708,181.407608,
2.395833254,182.4078064,
2.397500038,180.5339661,
2.399166584,180.4107208,
2.400833368,181.4313202,
2.402500153,181.1571045,
2.404166698,181.4241333,
2.405833483,181.2045746,
2.407500029,181.3457184,
2.409166813,182.1526184,
2.410833597,182.5873566,
2.412499905,181.6208344,
2.414166689,182.5689087,
2.415833235,181.4951019,
2.417500019,181.811676,
2.419166803,181.0359039,
2.420833349,180.2548523,
2.422500134,182.0654144,
2.424166679,182.5330505,
2.425833464,181.0006866,
2.427500248,182.6590576,
2.429166555,181.4786072,
2.43083334,183.5050812,
2.432499886,182.1351318,
2.43416667,181.555069,
2.435833454,181.885498,
2.4375,181.3453674,
2.439166784,182.1733246,
2.44083333,182.505661,
2.442500114,181.3321838,
2.444166899,181.6090698,
2.445833445,183.068512,
2.44749999,180.7723236,
2.449166536,180.717392,
2.450833321,181.4501801,
2.452500105,181.0045929,
2.454166651,182.0647888,
2.455833435,180.7978973,
2.457499981,181.8371429,
2.459166765,182.4603424,
2.460833549,181.4812469,
2.462500095,181.1430206,
2.46416688,181.8988342,
2.465833187,181.1847992,
2.467499971,181.2585297,
2.469166756,182.2920227,
2.470833302,180.7199707,
2.472500086,180.3270111,
2.474166632,181.4861755,
2.475833416,181.3478394,
2.4775002,182.5479736,
2.479166746,182.8547211,
2.48083353,181.4332733,
2.482499838,182.5054321,
2.484166622,181.3965149,
2.485833406,180.6532288,
2.487499952,182.0609741,
2.489166737,181.150116,
2.490833282,182.7966461,
2.492500067,182.0993958,
2.494166851,181.7523346,
2.495833397,183.7950287,
2.497500181,182.0414886,
2.499166727,183.0774689,
2.500833273,182.6467743,
2.502500057,181.84729,
2.504166603,182.1299438,
2.505833387,181.4230957,
2.507499933,182.6738892,
2.509166718,181.8234406,
2.510833502,182.7378387,
2.512500048,183.2505188,
2.514166832,182.5671997,
2.515833378,180.7700043,
2.517500162,182.4392548,
2.519166708,181.1075745,
2.520833254,182.5950317,
2.522500038,182.5973816,
2.524166584,181.7104645,
2.525833368,181.8756714,
2.527500153,181.6547852,
2.529166698,182.8772125,
2.530833483,181.9815063,
2.532500029,181.808136,
2.534166813,181.897522,
2.535833597,182.0670929,
2.537499905,182.7274933,
2.539166689,182.3455811,
2.540833235,181.1076508,
2.542500019,180.6609497,
2.544166803,182.2476196,
2.545833349,182.7703705,
2.547500134,182.1713257,
2.549166679,182.2522125,
2.550833464,181.1058197,
2.552500248,182.1449585,
2.554166555,182.2978821,
2.55583334,182.2142181,
2.557499886,181.0707245,
2.55916667,181.3575592,
2.560833454,182.0039673,
2.5625,182.5914001,
2.564166784,182.0163422,
2.56583333,181.768158,
2.567500114,183.9195404,
2.569166899,182.4021606,
2.570833445,182.3905487,
2.57249999,182.0711517,
2.574166536,182.348175,
2.575833321,182.4139557,
2.577500105,181.7784119,
2.579166651,181.8942261,
2.580833435,182.4724731,
2.582499981,181.2621307,
2.584166765,183.249649,
2.585833549,182.0888062,
2.587500095,181.5540771,
2.58916688,181.7102356,
2.590833187,182.1375275,
2.592499971,182.1376801,
2.594166756,181.5144653,
2.595833302,182.8111725,
2.597500086,181.0513763,
2.599166632,182.9578247,
2.600833416,182.2323761,
2.6025002,182.9511566,
2.604166746,182.0744629,
2.60583353,181.5236511,
2.607499838,182.1308594,
2.609166622,181.8792267,
2.610833406,181.2666473,
2.612499952,181.3248901,
2.614166737,182.7366486,
2.615833282,183.1962128,
2.617500067,183.0350494,
2.619166851,182.7401428,
2.620833397,181.3716431,
2.622500181,181.4993744,
2.624166727,182.0411835,
2.625833273,182.3227234,
2.627500057,181.0734558,
2.629166603,182.7002869,
2.630833387,182.8744507,
2.632499933,181.5022125,
2.634166718,183.2909546,
2.635833502,182.8831482,
2.637500048,183.2129669,
2.639166832,182.1137695,
2.640833378,181.4624939,
2.642500162,180.592804,
2.644166708,183.1565247,
2.645833254,181.7239075,
2.647500038,181.6685638,
2.649166584,181.4245605,
2.650833368,183.2635498,
2.652500153,182.6121216,
2.654166698,182.4295654,
2.655833483,182.7136993,
2.657500029,182.3257294,
2.659166813,181.7962341,
2.660833597,182.2658997,
2.662499905,181.557724,
2.664166689,181.9487152,
2.665833235,182.1965179,
2.667500019,183.2198792,
2.669166803,183.0583801,
2.670833349,182.1195374,
2.672500134,180.6797638,
2.674166679,182.6807098,
2.675833464,182.1881256,
2.677500248,182.2486725,
2.679166555,181.6710968,
2.68083334,182.6053314,
2.682499886,183.2783203,
2.68416667,182.8453217,
2.685833454,181.7030487,
2.6875,183.2548218,
2.689166784,181.6584167,
2.69083333,182.083374,
2.692500114,182.0904083,
2.694166899,182.9151917,
2.695833445,183.6520844,
2.69749999,183.2659912,
2.699166536,181.931427,
2.700833321,182.2680054,
2.702500105,182.6372681,
2.704166651,181.8800507,
2.705833435,181.7960663,
2.707499981,181.952774,
2.709166765,182.4840393,
2.710833549,182.4871063,
2.712500095,181.5076294,
2.71416688,183.2006073,
2.715833187,181.8948364,
2.717499971,181.1731262,
2.719166756,181.783844,
2.720833302,182.7539063,
2.722500086,181.4697876,
2.724166632,183.0791779,
2.725833416,182.4168549,
2.7275002,182.5572968,
2.729166746,182.0886993,
2.73083353,182.5901031,
2.732499838,182.1997986,
2.734166622,182.4581757,
2.735833406,183.4631042,
2.737499952,183.2527924,
2.739166737,182.8477325,
2.740833282,182.1644745,
2.742500067,181.6087494,
2.744166851,181.6698761,
2.745833397,182.5918274,
2.747500181,183.0739594,
2.749166727,181.281189,
2.750833273,183.0391998,
2.752500057,183.0493011,
2.754166603,182.2321472,
2.755833387,184.1872559,
2.757499933,182.9187164,
2.759166718,183.7465973,
2.760833502,181.7927551,
2.762500048,182.0661621,
2.764166832,182.4631958,
2.765833378,182.5526276,
2.767500162,183.9728394,
2.769166708,183.600296,
2.770833254,183.1495056,
2.772500038,183.796875,
2.774166584,183.0556488,
2.775833368,182.2526855,
2.777500153,182.4584351,
2.779166698,183.033844,
2.780833483,183.5215759,
2.782500029,181.8171234,
2.784166813,182.8517151,
2.785833597,184.1490173,
2.787499905,182.1085358,
2.789166689,183.7255859,
2.790833235,182.9697266,
2.792500019,184.3956451,
2.794166803,182.8891907,
2.795833349,183.8474274,
2.797500134,181.7915802,
2.799166679,183.3310089,
2.800833464,181.3054352,
2.802500248,183.0875397,
2.804166555,182.5172272,
2.80583334,182.3139038,
2.807499886,182.5863953,
2.80916667,183.339325,
2.810833454,183.6179657,
2.8125,182.5552063,
2.814166784,182.8366699,
2.81583333,182.8336639,
2.817500114,183.6147766,
2.819166899,182.4236603,
2.820833445,183.6313782,
2.82249999,180.769104,
2.824166536,183.1333313,
2.825833321,183.3899994,
2.827500105,183.1151886,
2.829166651,181.5673676,
2.830833435,184.6138611,
2.832499981,183.4030304,
2.834166765,182.5315552,
2.835833549,182.9079132,
2.837500095,182.9198303,
2.83916688,181.8176727,
2.840833187,183.0776062,
2.842499971,181.9658051,
2.844166756,182.9698029,
2.845833302,183.0402679,
2.847500086,183.1909943,
2.849166632,183.3913422,
2.850833416,182.5508728,
2.8525002,182.2703247,
2.854166746,182.572998,
2.85583353,182.8372955,
2.857499838,182.3066254,
2.859166622,182.9559021,
2.860833406,182.4216156,
2.862499952,183.740509,
2.864166737,181.9151917,
2.865833282,181.6121979,
2.867500067,183.9495239,
2.869166851,183.4981689,
2.870833397,183.6772614,
2.872500181,183.302948,
2.874166727,183.0241089,
2.875833273,184.0319824,
2.877500057,184.0326385,
2.879166603,181.6485138,
2.880833387,181.7214203,
2.882499933,183.0890808,
2.884166718,182.8334045,
2.885833502,183.9521484,
2.887500048,183.221283,
2.889166832,183.8691406,
2.890833378,183.2378998,
2.892500162,181.6881409,
2.894166708,182.0859222,
2.895833254,182.5279236,
2.897500038,181.8798676,
2.899166584,183.1289825,
2.900833368,182.8263092,
2.902500153,182.711319,
2.904166698,183.1425476,
2.905833483,181.6112366,
2.907500029,183.2457886,
2.909166813,183.1451721,
2.910833597,182.7380981,
2.912499905,183.0618286,
2.914166689,183.049408,
2.915833235,184.2028198,
2.917500019,181.6909485,
2.919166803,182.1095276,
2.920833349,182.3956451,
2.922500134,182.0875397,
2.924166679,183.595108,
2.925833464,183.0976868,
2.927500248,182.6559753,
2.929166555,183.1496277,
2.93083334,184.2070313,
2.932499886,184.1768646,
2.93416667,183.5258484,
2.935833454,183.2088165,
2.9375,183.2071991,
2.939166784,183.0859528,
2.94083333,183.7158508,
2.942500114,183.0729065,
2.944166899,183.5211029,
2.945833445,183.9884644,
2.94749999,182.2586975,
2.949166536,182.0745239,
2.950833321,184.163681,
2.952500105,183.2082825,
2.954166651,182.7518921,
2.955833435,182.6721497,
2.957499981,183.1177063,
2.959166765,183.7133026,
2.960833549,182.344696,
2.962500095,182.9144592,
2.96416688,184.1819611,
2.965833187,182.5131226,
2.967499971,182.7460632,
2.969166756,181.7373657,
2.970833302,183.0534363,
2.972500086,183.2414551,
2.974166632,184.3412018,
2.975833416,183.6755219,
2.9775002,183.1841278,
2.979166746,182.2404785,
2.98083353,183.4828949,
2.982499838,183.5082092,
2.984166622,185.0757446,
2.985833406,183.0476379,
2.987499952,182.3043823,
2.989166737,181.6096954,
2.990833282,182.8165131,
2.992500067,183.1222992,
2.994166851,183.5422363,
2.995833397,182.6512756,
2.997500181,183.4728088,
2.999166727,184.483139,
3.000833273,182.6384735,
3.002500057,183.7726746,
3.004166603,183.5029449,
3.005833387,182.7282715,
3.007499933,182.3927765,
3.009166718,183.139679,
3.010833502,182.6428833,
3.012500048,182.5963593,
3.014166832,182.3466949,
3.015833378,184.3039398,
3.017500162,181.7902222,
3.019166708,184.1336365,
3.020833254,183.4845581,
3.022500038,183.5210571,
3.024166584,184.0317993,
3.025833368,183.6907806,
3.027500153,184.1404266,
3.029166698,182.7734985,
3.030833483,182.8592072,
3.032500029,182.3690491,
3.034166813,183.7585754,
3.035833597,184.3417664,
3.037499905,182.4338989,
3.039166689,184.5249023,
3.040833235,183.2757111,
3.042500019,184.1856689,
3.044166803,183.8732147,
3.045833349,182.8539429,
3.047500134,183.2935791,
3.049166679,184.0492859,
3.050833464,184.2622681,
3.052500248,183.3292236,
3.054166555,183.5728455,
3.05583334,182.2438202,
3.057499886,183.3254395,
3.05916667,182.7293701,
3.060833454,183.9207153,
3.0625,183.9331055,
3.064166784,182.7570038,
3.06583333,183.7743988,
3.067500114,184.0718536,
3.069166899,182.9409332,
3.070833445,182.405426,
3.07249999,183.558609,
3.074166536,183.7264404,
3.075833321,182.4397736,
3.077500105,184.2086029,
3.079166651,183.6539154,
3.080833435,182.4967346,
3.082499981,182.37854,
3.084166765,183.2161102,
3.085833549,184.0514526,
3.087500095,184.1298981,
3.08916688,183.2112732,
3.090833187,182.8143005,
3.092499971,185.2580566,
3.094166756,183.3246155,
3.095833302,183.690567,
3.097500086,184.1373749,
3.099166632,182.6916504,
3.100833416,181.1032257,
3.1025002,184.3738556,
3.104166746,183.1947937,
3.10583353,183.7957153,
3.107499838,182.719635,
3.109166622,182.877594,
3.110833406,183.7976227,
3.112499952,183.7159729,
3.114166737,183.0045624,
3.115833282,183.6645508,
3.117500067,183.3692932,
3.119166851,183.3082275,
3.120833397,182.8430023,
3.122500181,183.0843048,
3.124166727,183.6008148,
3.125833273,183.3432312,
3.127500057,182.7291107,
3.129166603,183.5502472,
3.130833387,183.0854492,
3.132499933,184.0019531,
3.134166718,183.0046082,
3.135833502,183.5630646,
3.137500048,183.9667511,
3.139166832,182.6334686,
3.140833378,184.5237274,
3.142500162,183.6465912,
3.144166708,182.7589569,
3.145833254,183.1350403,
3.147500038,185.3500519,
3.149166584,183.9208374,
3.150833368,182.3878479,
3.152500153,183.561203,
3.154166698,182.9028473,
3.155833483,184.1497345,
3.157500029,184.2089539,
3.159166813,182.9455261,
3.160833597,182.7243042,
3.162499905,184.0108795,
3.164166689,183.4428711,
3.165833235,183.8337555,
3.167500019,183.8102722,
3.169166803,184.7288971,
3.170833349,184.1924286,
3.172500134,183.5348969,
3.174166679,182.8902588,
3.175833464,184.4720764,
3.177500248,183.7578583,
3.179166555,183.158783,
3.18083334,184.2473297,
3.182499886,182.99263,
3.18416667,183.9506226,
3.185833454,184.6958618,
3.1875,184.1499481,
3.189166784,183.5471649,
3.19083333,183.5028229,
3.192500114,183.3972015,
3.194166899,182.5761566,
3.195833445,182.8317566,
3.19749999,182.9315796,
3.199166536,184.2046967,
3.200833321,184.334198,
3.202500105,183.3319702,
3.204166651,183.4429779,
3.205833435,184.1952667,
3.207499981,183.4343567,
3.209166765,183.2545624,
3.210833549,182.2702484,
3.212500095,183.815155,
3.21416688,184.7948761,
3.215833187,184.2687225,
3.217499971,183.3683167,
3.219166756,182.8427734,
3.220833302,183.0360718,
3.222500086,182.9471283,
3.224166632,183.7164154,
3.225833416,183.513443,
3.2275002,183.2110291,
3.229166746,183.3945465,
3.23083353,182.8408966,
3.232499838,183.1665649,
3.234166622,183.0294189,
3.235833406,184.1828156,
3.237499952,183.7196198,
3.239166737,183.2818451,
3.240833282,184.4641418,
3.242500067,183.0294037,
3.244166851,183.749588,
3.245833397,183.2960052,
3.247500181,183.3645935,
3.249166727,182.4179382,
3.250833273,182.4597321,
3.252500057,183.0600281,
3.254166603,184.7468719,
3.255833387,183.5411682,
3.257499933,182.8647919,
3.259166718,183.7236786,
3.260833502,182.2601929,
3.262500048,184.5279999,
3.264166832,184.3935242,
3.265833378,184.3009644,
3.267500162,183.0218658,
3.269166708,182.5189514,
3.270833254,183.6046753,
3.272500038,184.004837,
3.274166584,185.0146484,
3.275833368,182.760498,
3.277500153,183.9949341,
3.279166698,183.6930542,
3.280833483,183.3576813,
3.282500029,183.9609985,
3.284166813,184.8861084,
3.285833597,183.3962402,
3.287499905,183.9387512,
3.289166689,183.0936584,
3.290833235,184.0891113,
3.292500019,182.8896332,
3.294166803,183.6399841,
3.295833349,183.6639099,
3.297500134,183.7167511,
3.299166679,183.6733551,
3.300833464,183.2211761,
3.302500248,183.9498596,
3.304166555,183.9576874,
3.30583334,184.1321259,
3.307499886,184.3497772,
3.30916667,183.8480835,
3.310833454,183.893692,
3.3125,183.2316437,
3.314166784,183.5956268,
3.31583333,182.7452545,
3.317500114,184.379715,
3.319166899,183.8503418,
3.320833445,182.5437927,
3.32249999,182.735611,
3.324166536,183.3262329,
3.325833321,182.9350739,
3.327500105,185.263504,
3.329166651,184.2169952,
3.330833435,183.486618,
3.332499981,183.0495911,
3.334166765,182.560379,
3.335833549,183.4371033,
3.337500095,183.6612244,
3.33916688,182.1686859,
3.340833187,184.0196075,
3.342499971,184.5566559,
3.344166756,182.9284668,
3.345833302,182.9544067,
3.347500086,183.761322,
3.349166632,183.7205963,
3.350833416,182.1755219,
3.3525002,183.3112335,
3.354166746,183.223999,
3.35583353,184.9458923,
3.357499838,182.7567291,
3.359166622,183.4906006,
3.360833406,183.9069672,
3.362499952,182.9114838,
3.364166737,182.7580719,
3.365833282,184.8266754,
3.367500067,183.9219055,
3.369166851,184.2147827,
3.370833397,185.3535309,
3.372500181,182.6801147,
3.374166727,184.2203064,
3.375833273,185.7240753,
3.377500057,184.6162109,
3.379166603,184.0026855,
3.380833387,184.8135376,
3.382499933,183.1842194,
3.384166718,184.3368073,
3.385833502,183.5718842,
3.387500048,183.6888123,
3.389166832,183.809494,
3.390833378,183.7051544,
3.392500162,183.0802917,
3.394166708,184.0130463,
3.395833254,184.0958557,
3.397500038,182.5296631,
3.399166584,182.4007263,
3.400833368,184.2780914,
3.402500153,182.9980469,
3.404166698,182.6071625,
3.405833483,184.626358,
3.407500029,183.7177429,
3.409166813,182.8503113,
3.410833597,184.8923035,
3.412499905,183.6466827,
3.414166689,182.8184662,
3.415833235,183.9399261,
3.417500019,184.0096741,
3.419166803,183.1501007,
3.420833349,184.4975433,
3.422500134,185.2654266,
3.424166679,184.0188599,
3.425833464,184.4911652,
3.427500248,184.3729553,
3.429166555,184.2285309,
3.43083334,183.2496033,
3.432499886,184.1512146,
3.43416667,184.1407471,
3.435833454,184.7730255,
3.4375,183.4788666,
3.439166784,183.7360687,
3.44083333,183.6999512,
3.442500114,183.53685,
3.444166899,183.6788635,
3.445833445,182.6139069,
3.44749999,183.481842,
3.449166536,182.9477997,
3.450833321,184.8212585,
3.452500105,182.7337494,
3.454166651,184.1591339,
3.455833435,183.4941864,
3.457499981,183.6925354,
3.459166765,183.9693451,
3.460833549,183.2300873,
3.462500095,183.3384857,
3.46416688,183.3023376,
3.465833187,183.365921,
3.467499971,184.3358459,
3.469166756,184.2683105,
3.470833302,184.1494141,
3.472500086,182.5802155,
3.474166632,183.5110321,
3.475833416,183.1632233,
3.4775002,183.2356567,
3.479166746,183.86763,
3.48083353,184.7788239,
3.482499838,183.8484955,
3.484166622,184.336319,
3.485833406,183.5702515,
3.487499952,183.7270966,
3.489166737,183.7688446,
3.490833282,183.2721558,
3.492500067,184.4522552,
3.494166851,183.5023193,
3.495833397,184.5496674,
3.497500181,183.8061218,
3.499166727,183.6684265,
3.500833273,183.4004974,
3.502500057,184.6243134,
3.504166603,184.183197,
3.505833387,183.4131775,
3.507499933,183.6661224,
3.509166718,183.0220642,
3.510833502,183.2419128,
3.512500048,184.267395,
3.514166832,184.5147705,
3.515833378,181.8762512,
3.517500162,184.5379028,
3.519166708,183.5529022,
3.520833254,184.2852173,
3.522500038,184.6154785,
3.524166584,182.2292175,
3.525833368,183.3156281,
3.527500153,184.4102936,
3.529166698,182.461792,
3.530833483,183.1766052,
3.532500029,183.3573303,
3.534166813,184.5305328,
3.535833597,183.3788452,
3.537499905,184.7668457,
3.539166689,183.9242706,
3.540833235,183.352829,
3.542500019,183.2814178,
3.544166803,182.8329468,
3.545833349,183.8989105,
3.547500134,184.0592499,
3.549166679,184.7614594,
3.550833464,182.2715149,
3.552500248,183.5468903,
3.554166555,184.104126,
3.55583334,184.5487366,
3.557499886,183.8725586,
3.55916667,182.8927155,
3.560833454,184.594223,

