1,,
Time (min),Intensity (a.u.),
0.0008333333535,273.0752258,
0.002500000177,273.222229,
0.004166666884,272.9728394,
0.005833333358,273.138031,
0.007500000298,273.4446411,
0.009166667238,271.5026245,
0.01083333418,272.648468,
0.01250000019,274.0212708,
0.01416666713,275.0201111,
0.01583333313,275.3623962,
0.01750000194,273.8922424,
0.01916666701,274.9741516,
0.02083333395,273.4083862,
0.02250000089,272.5367126,
0.02416666783,272.7202454,
0.02583333477,271.7320557,
0.02749999985,272.7971497,
0.02916666679,274.4592896,
0.03083333373,273.5800171,
0.03250000253,275.3688354,
0.03416666761,274.0462646,
0.03583333641,273.5707092,
0.03750000149,272.2199707,
0.03916667029,272.5921326,
0.04083333537,272.2183838,
0.04250000045,273.7935791,
0.04416666925,273.4678345,
0.04583333433,274.8279114,
0.04750000313,273.5197144,
0.04916666821,270.8498535,
0.05083333328,271.6069336,
0.05250000209,272.1730042,
0.05416666716,273.6131592,
0.05583333597,272.6013794,
0.05750000104,273.0567017,
0.05916666612,273.9974976,
0.06083333492,273.6882324,
0.0625,273.7242126,
0.06416667253,272.4964294,
0.0658333376,272.9217834,
0.06750000268,273.2036743,
0.06916666776,273.4146423,
0.07083333284,275.3896484,
0.07249999791,274.9455261,
0.07416667044,273.4467163,
0.07583333552,273.8006287,
0.0775000006,270.8684998,
0.07916666567,273.2592773,
0.08083333075,272.9846191,
0.08250000328,272.7000732,
0.08416666836,273.7150879,
0.08583333343,273.8514099,
0.08749999851,273.6020203,
0.08916666359,273.0756531,
0.09083333611,274.3015747,
0.09250000119,272.7968445,
0.09416666627,273.6060181,
0.09583333135,274.8535156,
0.09749999642,273.764801,
0.09916666895,272.0170593,
0.100833334,274.9508667,
0.1024999991,272.8510437,
0.1041666642,271.6080933,
0.1058333293,272.1679993,
0.1075000018,272.4897461,
0.1091666669,273.8633118,
0.1108333319,274.2667542,
0.112499997,272.6976318,
0.1141666621,273.3765259,
0.1158333346,273.2597351,
0.1174999997,273.0449524,
0.1191666648,274.1538696,
0.1208333299,272.7245789,
0.1224999949,274.0488586,
0.1241666749,273.9196777,
0.1258333325,274.1158447,
0.1274999976,271.6576538,
0.1291666627,273.3402405,
0.1308333278,272.8806763,
0.1325000077,273.6334534,
0.1341666728,274.4072571,
0.1358333379,272.4999695,
0.137500003,270.7382813,
0.1391666681,272.9594421,
0.1408333331,272.792511,
0.1424999982,272.2400818,
0.1441666782,274.5499878,
0.1458333284,272.9981384,
0.1475000083,273.4951782,
0.1491666585,272.8675537,
0.1508333385,273.5947266,
0.1525000036,272.4512634,
0.1541666687,272.1792908,
0.1558333337,272.7783508,
0.1574999988,273.8859253,
0.1591666639,271.2027893,
0.1608333439,273.198822,
0.162499994,272.0324402,
0.164166674,274.117157,
0.1658333242,271.8475342,
0.1675000042,273.0960999,
0.1691666692,272.1533203,
0.1708333343,272.7406006,
0.1724999994,274.7227783,
0.1741666645,273.3051453,
0.1758333296,273.4277344,
0.1775000095,270.9860535,
0.1791666597,272.842926,
0.1808333397,271.6489258,
0.1824999899,271.177002,
0.1841666698,273.6902466,
0.1858333498,274.871521,
0.1875,272.5333557,
0.18916668,271.8638611,
0.1908333302,272.1297302,
0.1925000101,272.0851746,
0.1941666752,272.7191162,
0.1958333403,271.4804382,
0.1975000054,272.0741577,
0.1991666704,273.8551025,
0.2008333355,274.022583,
0.2025000155,271.8937988,
0.2041666657,273.0468445,
0.2058333457,272.2606812,
0.2074999958,273.2585144,
0.2091666758,272.2612305,
0.2108333409,271.9208069,
0.212500006,273.3955078,
0.214166671,273.6946716,
0.2158333361,273.8731995,
0.2175000012,273.6606445,
0.2191666812,273.4100647,
0.2208333313,273.5872803,
0.2225000113,273.3565063,
0.2241666615,272.3713989,
0.2258333415,271.3204651,
0.2275000066,272.0290222,
0.2291666716,272.53302,
0.2308333367,271.3782043,
0.2325000018,274.4369812,
0.2341666669,272.7105713,
0.2358333468,272.3274536,
0.237499997,272.3440857,
0.239166677,272.1174622,
0.2408333272,271.9420471,
0.2425000072,272.6162415,
0.2441666722,273.142395,
0.2458333373,273.1196594,
0.2475000024,272.6349182,
0.2491666675,273.7513733,
0.2508333325,272.4276428,
0.2524999976,273.4656067,
0.2541666627,273.4060669,
0.2558333278,273.1871338,
0.2574999928,271.7668762,
0.2591666579,272.2648621,
0.2608333528,273.1901245,
0.2624999881,272.9089966,
0.264166683,272.385437,
0.2658333182,271.6226807,
0.2675000131,273.8449402,
0.2691666484,273.7851257,
0.2708333433,273.7750549,
0.2725000083,273.3908691,
0.2741666734,271.4937744,
0.2758333385,272.9598389,
0.2775000036,272.2641296,
0.2791666687,273.1219482,
0.2808333337,272.8959045,
0.2824999988,272.3259277,
0.2841666937,272.7582092,
0.285833329,272.1624146,
0.287499994,273.3027954,
0.2891666591,272.3539734,
0.290833354,273.6168823,
0.2925000191,274.0709534,
0.2941666543,270.9527283,
0.2958333194,271.4541321,
0.2975000143,273.0101013,
0.2991666794,273.0248413,
0.3008333445,273.6602478,
0.3024999797,271.4115295,
0.3041666746,271.7577209,
0.3058333397,273.4317322,
0.3075000048,272.6685791,
0.3091666996,271.7879639,
0.3108333349,272.2667847,
0.3125,273.0070801,
0.3141666651,272.5303345,
0.31583336,272.4120789,
0.317500025,272.04599,
0.3191666603,273.1609802,
0.3208333254,272.6943054,
0.3225000203,273.6783447,
0.3241666853,272.5362854,
0.3258333504,271.7588806,
0.3274999857,273.3397827,
0.3291666806,272.4616699,
0.3308333457,272.265625,
0.3325000107,272.6385498,
0.3341666758,271.2947083,
0.3358333409,271.3106995,
0.337500006,272.723999,
0.339166671,271.8386841,
0.3408333361,274.5554199,
0.342500031,272.6678772,
0.3441666663,271.6173401,
0.3458333313,272.3490295,
0.3474999964,273.3246765,
0.3491666913,273.4453125,
0.3508333564,271.9645996,
0.3524999917,271.6064148,
0.3541666567,271.3357544,
0.3558333516,272.574585,
0.3575000167,271.50177,
0.3591666818,272.3923645,
0.360833317,272.2217712,
0.3625000119,271.8877563,
0.364166677,271.5508728,
0.3658333421,270.9974976,
0.3675000072,274.6422729,
0.3691666722,273.4083862,
0.3708333373,272.6087341,
0.3725000024,273.065033,
0.3741666675,272.3886108,
0.3758333623,271.7372437,
0.3774999976,271.3540955,
0.3791666627,270.787262,
0.3808333278,272.4363403,
0.3825000226,272.3244934,
0.3841666877,273.2393188,
0.385833323,271.6143188,
0.3874999881,272.5352478,
0.389166683,273.347168,
0.390833348,271.9668884,
0.3925000131,271.6252441,
0.3941666484,273.0100403,
0.3958333433,270.164917,
0.3975000083,272.0369873,
0.3991666734,272.0065918,
0.4008333385,272.8970947,
0.4025000036,273.6542053,
0.4041666687,272.321106,
0.4058333337,271.8499146,
0.4074999988,272.8374634,
0.4091666937,272.5992737,
0.410833329,272.3788757,
0.412499994,270.6216431,
0.4141666591,273.271698,
0.415833354,271.5138855,
0.4175000191,273.3078918,
0.4191666543,271.1932068,
0.4208333194,271.2399597,
0.4225000143,271.486969,
0.4241666794,271.9044495,
0.4258333445,273.290863,
0.4274999797,271.7349854,
0.4291666746,273.029541,
0.4308333397,273.1427002,
0.4325000048,270.9316101,
0.4341666996,271.913269,
0.4358333349,270.9230347,
0.4375,272.5246582,
0.4391666651,273.2523193,
0.44083336,271.0796204,
0.442500025,273.5,
0.4441666603,272.5198364,
0.4458333254,269.8883667,
0.4475000203,271.2758484,
0.4491666853,270.1512756,
0.4508333504,272.447052,
0.4524999857,272.1586304,
0.4541666806,271.8759155,
0.4558333457,272.2021484,
0.4575000107,271.6583862,
0.4591666758,271.7102966,
0.4608333409,271.6207886,
0.462500006,271.0859375,
0.464166671,271.8698425,
0.4658333361,271.7898254,
0.467500031,271.133667,
0.4691666663,272.0554504,
0.4708333313,271.799469,
0.4724999964,272.5313721,
0.4741666913,271.9141846,
0.4758333564,271.0644836,
0.4774999917,272.2240295,
0.4791666567,272.4325562,
0.4808333516,272.7321472,
0.4825000167,270.7422485,
0.4841666818,270.6036072,
0.485833317,270.9489136,
0.4875000119,271.736969,
0.489166677,272.7698364,
0.4908333421,271.5634155,
0.4925000072,271.9736938,
0.4941666722,270.6946411,
0.4958333373,272.4573364,
0.4975000024,271.8836975,
0.4991666675,272.1539001,
0.5008333325,273.0426331,
0.5024999976,271.7833557,
0.5041666627,271.901825,
0.5058333278,272.100769,
0.5074999928,271.5241089,
0.5091666579,272.1592407,
0.510833323,271.7418823,
0.5124999881,271.7013855,
0.5141666532,272.8516235,
0.5158333182,272.3015137,
0.5175000429,270.7045288,
0.5191666484,272.337677,
0.5208333135,271.5733337,
0.5224999785,271.3983459,
0.5241667032,272.2406006,
0.5258333683,272.616394,
0.5274999738,271.707489,
0.5291666389,272.4530029,
0.5308333635,272.8605652,
0.5325000286,273.0409241,
0.5341666341,271.7975769,
0.5358333588,271.6350403,
0.5375000238,270.2137451,
0.5391666889,271.4495239,
0.540833354,271.9170837,
0.5424999595,273.3382263,
0.5441666842,270.8136597,
0.5458333492,271.4370728,
0.5475000143,272.3560181,
0.5491666794,272.8002625,
0.5508333445,271.4077148,
0.5525000095,270.8858337,
0.5541666746,270.391571,
0.5558333993,271.6630249,
0.5575000048,273.0831604,
0.5591666698,272.3773193,
0.5608333349,271.322113,
0.5625,272.2764587,
0.5641667247,272.3832092,
0.5658333302,271.3763733,
0.5674999952,274.542511,
0.5691667199,272.3834839,
0.5708333254,273.1248474,
0.5725000501,273.4915771,
0.5741666555,273.1174622,
0.5758333206,273.8140564,
0.5775000453,273.8947754,
0.5791666508,271.8314819,
0.5808333755,272.7816467,
0.5825000405,271.1562195,
0.584166646,271.2709961,
0.5858333707,270.6275024,
0.5874999762,272.848175,
0.5891667008,271.2495422,
0.5908333659,271.9644165,
0.5924999714,272.7401123,
0.5941666961,270.447937,
0.5958333611,271.0653076,
0.5975000262,272.6126099,
0.5991666913,270.4851685,
0.6008332968,271.7007751,
0.6025000215,271.8155212,
0.6041666865,271.8838196,
0.6058333516,272.0839233,
0.6075000167,272.1079102,
0.6091666818,273.2156067,
0.6108333468,270.7175598,
0.6125000119,271.5814819,
0.614166677,272.5514221,
0.6158333421,272.00354,
0.6175000072,270.8243103,
0.6191666722,272.4261169,
0.6208333373,272.0416565,
0.622500062,272.9990234,
0.6241666675,271.5213013,
0.6258333325,273.7998657,
0.6274999976,271.2446594,
0.6291666627,271.6790771,
0.6308333874,271.2666626,
0.6324999928,271.1508179,
0.6341666579,271.4135742,
0.6358333826,270.6280212,
0.6374999881,271.7221985,
0.6391667128,270.0227966,
0.6408333182,271.9237061,
0.6424999833,272.5138855,
0.644166708,273.3080444,
0.6458333135,271.8881531,
0.6475000381,271.3806152,
0.6491667032,272.6494751,
0.6508333087,268.9286194,
0.6525000334,271.8075867,
0.6541666389,271.2307434,
0.6558333635,271.0087891,
0.6575000286,271.2887573,
0.6591666341,270.8237915,
0.6608333588,272.5064087,
0.6625000238,273.6681519,
0.6641666889,272.9746399,
0.665833354,271.2241211,
0.6674999595,272.1356812,
0.6691666842,271.7872009,
0.6708333492,273.7548218,
0.6725000143,271.9031067,
0.6741666794,272.6372986,
0.6758333445,273.4326782,
0.6775000095,272.9816284,
0.6791666746,272.0350037,
0.6808333993,271.0897522,
0.6825000048,272.2633972,
0.6841666698,272.6385193,
0.6858333349,272.6792908,
0.6875,272.6343689,
0.6891667247,272.2865295,
0.6908333302,273.0601807,
0.6924999952,270.2897949,
0.6941667199,271.374939,
0.6958333254,271.4001465,
0.6975000501,269.771637,
0.6991666555,271.3617859,
0.7008333206,272.8691101,
0.7025000453,271.6455383,
0.7041666508,271.4230957,
0.7058333755,271.5775452,
0.7075000405,271.215332,
0.709166646,272.1312866,
0.7108333707,270.5763855,
0.7124999762,272.1196899,
0.7141667008,272.0467529,
0.7158333659,272.0147705,
0.7174999714,271.587616,
0.7191666961,272.4138794,
0.7208333611,270.1986084,
0.7225000262,271.339325,
0.7241666913,271.6804199,
0.7258332968,272.1108398,
0.7275000215,271.6579285,
0.7291666865,271.4978027,
0.7308333516,272.104248,
0.7325000167,277.9701538,
0.7341666818,272.0518188,
0.7358333468,269.9464111,
0.7375000119,272.6492615,
0.739166677,270.4899902,
0.7408333421,269.8134766,
0.7425000072,271.5273132,
0.7441666722,271.5752869,
0.7458333373,271.6002502,
0.747500062,269.9555664,
0.7491666675,270.7339783,
0.7508333325,271.258667,
0.7524999976,271.5000916,
0.7541666627,271.0009766,
0.7558333874,272.0227661,
0.7574999928,272.3056946,
0.7591666579,272.9450684,
0.7608333826,271.3020325,
0.7624999881,270.9813538,
0.7641667128,271.9424438,
0.7658333182,271.1099854,
0.7674999833,272.459137,
0.769166708,270.7962036,
0.7708333135,271.0714722,
0.7725000381,271.5556335,
0.7741667032,272.0894165,
0.7758333087,270.2436523,
0.7775000334,270.7686768,
0.7791666389,272.9129639,
0.7808333635,270.9815063,
0.7825000286,272.7436829,
0.7841666341,273.8842773,
0.7858333588,270.2955933,
0.7875000238,271.0740051,
0.7891666889,272.1604919,
0.790833354,270.6868896,
0.7924999595,273.573822,
0.7941666842,271.2077332,
0.7958333492,271.3627319,
0.7975000143,271.0334167,
0.7991666794,271.3309326,
0.8008333445,271.9771729,
0.8025000095,271.8005371,
0.8041666746,270.8680115,
0.8058333993,270.7565308,
0.8075000048,271.3595886,
0.8091666698,271.2452087,
0.8108333349,272.5608826,
0.8125,272.4830627,
0.8141667247,271.8323669,
0.8158333302,269.9534607,
0.8174999952,270.1889648,
0.8191667199,271.1023254,
0.8208333254,270.6957397,
0.8225000501,271.256897,
0.8241666555,271.9467163,
0.8258333206,272.1879883,
0.8275000453,272.3570557,
0.8291666508,273.1247559,
0.8308333755,271.1506958,
0.8325000405,270.1648254,
0.834166646,270.9700928,
0.8358333707,271.2138367,
0.8374999762,270.3961182,
0.8391667008,273.1560364,
0.8408333659,270.8720398,
0.8424999714,271.6172485,
0.8441666961,271.9765625,
0.8458333611,269.8842468,
0.8475000262,271.2727356,
0.8491666913,270.8624268,
0.8508332968,273.1237183,
0.8525000215,271.672699,
0.8541666865,270.9434509,
0.8558333516,272.3063049,
0.8575000167,271.0887756,
0.8591666818,273.0504456,
0.8608333468,271.9366455,
0.8625000119,270.878479,
0.864166677,272.4009094,
0.8658333421,270.2507935,
0.8675000072,270.9536743,
0.8691666722,270.3804321,
0.8708333373,272.8138733,
0.872500062,269.9652405,
0.8741666675,271.5449524,
0.8758333325,271.0715027,
0.8774999976,271.8613586,
0.8791666627,270.3328857,
0.8808333874,270.7006226,
0.8824999928,270.7050781,
0.8841666579,271.4761047,
0.8858333826,273.0668335,
0.8874999881,272.1439514,
0.8891667128,271.4640198,
0.8908333182,273.2208862,
0.8924999833,271.8664551,
0.894166708,271.9571838,
0.8958333135,272.2779541,
0.8975000381,272.2538147,
0.8991667032,270.6427002,
0.9008333087,272.484314,
0.9025000334,271.4518738,
0.9041666389,271.926239,
0.9058333635,272.8332825,
0.9075000286,271.3251038,
0.9091666341,270.1479492,
0.9108333588,270.4230957,
0.9125000238,271.2148438,
0.9141666889,272.4455261,
0.915833354,273.5791321,
0.9174999595,272.5713501,
0.9191666842,271.1600037,
0.9208333492,270.2042542,
0.9225000143,269.711853,
0.9241666794,270.6851807,
0.9258333445,271.3596497,
0.9275000095,272.4679565,
0.9291666746,272.2865601,
0.9308333993,272.4913025,
0.9325000048,271.2675171,
0.9341666698,271.3516846,
0.9358333349,271.9328003,
0.9375,270.4055176,
0.9391667247,271.0386658,
0.9408333302,271.2102051,
0.9424999952,271.9360962,
0.9441667199,271.0202942,
0.9458333254,271.6569519,
0.9475000501,269.9960938,
0.9491666555,271.1226807,
0.9508333206,270.8540955,
0.9525000453,269.9861755,
0.9541666508,270.1299438,
0.9558333755,269.6481934,
0.9575000405,272.0835571,
0.959166646,271.5857239,
0.9608333707,271.3157654,
0.9624999762,271.089325,
0.9641667008,272.1706543,
0.9658333659,270.7075195,
0.9674999714,271.1761169,
0.9691666961,269.8930054,
0.9708333611,271.1730957,
0.9725000262,271.209259,
0.9741666913,271.3232117,
0.9758332968,269.9355774,
0.9775000215,271.8795471,
0.9791666865,271.9998779,
0.9808333516,272.1319275,
0.9825000167,269.7067261,
0.9841666818,270.8986816,
0.9858333468,270.4089661,
0.9875000119,270.8857117,
0.989166677,272.1713257,
0.9908333421,270.5119629,
0.9925000072,271.7149963,
0.9941666722,270.2359619,
0.9958333373,269.9631042,
0.997500062,270.4559631,
0.9991666675,270.8104553,
1.000833273,270.3589172,
1.002500057,271.837616,
1.004166722,271.3330994,
1.005833387,269.0331116,
1.007500052,270.4074097,
1.009166598,270.6027222,
1.010833383,270.1517029,
1.012500048,271.1080933,
1.014166713,272.9944763,
1.015833378,271.82901,
1.017500043,270.5287476,
1.019166708,271.2001648,
1.020833373,271.2019348,
1.022500038,271.7396545,
1.024166703,270.552948,
1.025833368,270.5470886,
1.027500033,270.6651001,
1.029166698,270.9468689,
1.030833364,271.3831482,
1.032500029,273.1817932,
1.034166694,271.2343445,
1.035833359,269.2225647,
1.037500024,271.9541931,
1.039166689,271.4823608,
1.040833354,272.4510498,
1.042500019,270.4588013,
1.044166684,272.2915344,
1.045833349,271.1867371,
1.047500014,271.920166,
1.049166679,271.9616394,
1.050833344,270.1114197,
1.05250001,273.4874878,
1.054166675,271.2250061,
1.05583334,272.8604736,
1.057500005,269.8422852,
1.05916667,271.2770081,
1.060833335,271.153717,
1.0625,272.0472107,
1.064166665,270.4739075,
1.06583333,271.6706543,
1.067499995,271.4588928,
1.06916666,270.255249,
1.070833325,270.5610352,
1.07249999,271.1737366,
1.074166775,271.3276062,
1.07583344,272.0793457,
1.077499986,270.7319336,
1.079166651,271.9597168,
1.080833316,269.9030151,
1.0825001,270.547821,
1.084166765,272.322052,
1.085833311,271.3201599,
1.087499976,271.9503174,
1.089166641,272.4663086,
1.090833426,271.0791016,
1.092500091,269.4796753,
1.094166636,271.1614685,
1.095833302,271.4137573,
1.097499967,271.1838989,
1.099166751,270.5401001,
1.100833416,271.6351624,
1.102500081,271.6334839,
1.104166627,272.399292,
1.105833292,273.6528625,
1.107500076,270.6359558,
1.109166741,271.6612244,
1.110833406,271.0177612,
1.112499952,271.9429932,
1.114166617,270.5187073,
1.115833402,271.6685486,
1.117500067,271.1064453,
1.119166732,271.4130249,
1.120833278,269.5737,
1.122499943,270.9805908,
1.124166727,272.2648926,
1.125833392,269.9615479,
1.127500057,271.888855,
1.129166722,271.2597351,
1.130833268,271.5171509,
1.132500052,270.2169189,
1.134166718,270.1855164,
1.135833383,272.5263367,
1.137500048,272.277832,
1.139166594,270.7472534,
1.140833378,270.7503967,
1.142500043,272.2307739,
1.144166708,271.1898193,
1.145833373,271.8079529,
1.147499919,271.8163757,
1.149166703,271.3013306,
1.150833368,269.459259,
1.152500033,271.6218567,
1.154166698,270.6765137,
1.155833364,271.0723267,
1.157500029,269.9687805,
1.159166694,271.6764832,
1.160833359,271.8800659,
1.162500024,269.3356628,
1.164166689,270.4804382,
1.165833354,271.6431274,
1.167500019,271.8231506,
1.169166684,269.8830566,
1.170833349,269.8305969,
1.172500014,270.0950317,
1.174166799,271.1726379,
1.175833344,269.6367493,
1.17750001,270.9075623,
1.179166675,268.0505066,
1.18083334,271.7596741,
1.182500124,270.447052,
1.18416667,271.4124756,
1.185833335,272.1474915,
1.1875,268.8311768,
1.189166665,270.9666748,
1.190833449,270.5693359,
1.192499995,271.203949,
1.19416666,272.6443787,
1.195833325,270.0354004,
1.19749999,271.064209,
1.199166775,270.190918,
1.20083344,271.3726501,
1.202499986,270.734436,
1.204166651,271.8833618,
1.205833316,270.6112061,
1.2075001,271.8534546,
1.209166765,270.8948364,
1.210833311,270.3914185,
1.212499976,270.4257202,
1.214166641,271.0101318,
1.215833426,271.5229187,
1.217500091,270.2125244,
1.219166636,269.7486572,
1.220833302,271.806427,
1.222499967,270.7626648,
1.224166751,272.4104614,
1.225833416,272.2687073,
1.227500081,271.8216858,
1.229166627,271.5406494,
1.230833292,269.5640564,
1.232500076,270.8567505,
1.234166741,272.0558777,
1.235833406,272.6635742,
1.237499952,271.0461426,
1.239166617,270.5571289,
1.240833402,269.0560608,
1.242500067,271.5681763,
1.244166732,272.2037659,
1.245833278,272.3042603,
1.247499943,271.6799622,
1.249166727,269.6950378,
1.250833392,271.9949951,
1.252500057,272.1589355,
1.254166722,271.2583313,
1.255833268,270.5214539,
1.257500052,270.4517517,
1.259166718,270.8437195,
1.260833383,272.025177,
1.262500048,272.5135803,
1.264166594,270.1612854,
1.265833378,271.6679077,
1.267500043,270.862854,
1.269166708,273.3653564,
1.270833373,271.6190491,
1.272499919,271.8078003,
1.274166703,271.7229004,
1.275833368,271.0716248,
1.277500033,270.7110291,
1.279166698,270.0685425,
1.280833364,272.0393677,
1.282500029,270.4972839,
1.284166694,270.5112,
1.285833359,270.8800964,
1.287500024,271.1083374,
1.289166689,272.2288818,
1.290833354,270.9414063,
1.292500019,271.3604431,
1.294166684,271.4852295,
1.295833349,272.2533875,
1.297500014,270.6226196,
1.299166799,272.5649414,
1.300833344,269.802887,
1.30250001,271.4188538,
1.304166675,271.155426,
1.30583334,272.0777893,
1.307500124,271.1538696,
1.30916667,271.7990723,
1.310833335,271.0209961,
1.3125,269.9080811,
1.314166665,272.1680298,
1.315833449,271.8389893,
1.317499995,271.5167847,
1.31916666,270.3617554,
1.320833325,270.7896423,
1.32249999,270.5200806,
1.324166775,270.3712463,
1.32583344,271.5220947,
1.327499986,274.491333,
1.329166651,269.6197205,
1.330833316,271.0732422,
1.3325001,270.7811584,
1.334166765,269.8720093,
1.335833311,271.243988,
1.337499976,270.3422241,
1.339166641,270.1201782,
1.340833426,271.1461182,
1.342500091,272.5289612,
1.344166636,271.4729919,
1.345833302,270.9875488,
1.347499967,271.6325989,
1.349166751,272.0821838,
1.350833416,272.5324707,
1.352500081,271.3495483,
1.354166627,271.2711182,
1.355833292,272.7453613,
1.357500076,270.9439392,
1.359166741,270.2218323,
1.360833406,267.977356,
1.362499952,270.8402405,
1.364166617,270.2062683,
1.365833402,270.4273987,
1.367500067,270.193634,
1.369166732,270.4667969,
1.370833278,269.6893311,
1.372499943,273.724884,
1.374166727,272.0170288,
1.375833392,271.7687378,
1.377500057,271.162262,
1.379166722,270.0617065,
1.380833268,270.2574463,
1.382500052,270.6718445,
1.384166718,270.9367065,
1.385833383,269.4723206,
1.387500048,270.8942261,
1.389166594,270.5809021,
1.390833378,271.2140808,
1.392500043,271.9326477,
1.394166708,268.7511902,
1.395833373,270.4195862,
1.397499919,271.864624,
1.399166703,272.0527039,
1.400833368,272.7119446,
1.402500033,271.0386047,
1.404166698,269.8718262,
1.405833364,270.4441223,
1.407500029,272.0877991,
1.409166694,273.0424194,
1.410833359,271.4829102,
1.412500024,270.0306396,
1.414166689,272.1856995,
1.415833354,272.087616,
1.417500019,271.905426,
1.419166684,271.8976135,
1.420833349,272.0465088,
1.422500014,271.2732239,
1.424166799,270.5297852,
1.425833344,273.4864502,
1.42750001,272.3884277,
1.429166675,271.7270508,
1.43083334,271.2053223,
1.432500124,271.4267883,
1.43416667,270.618866,
1.435833335,270.9394836,
1.4375,269.8070068,
1.439166665,271.8743286,
1.440833449,271.8123779,
1.442499995,271.8822021,
1.44416666,271.4094238,
1.445833325,270.8564758,
1.44749999,272.0695801,
1.449166775,271.5819397,
1.45083344,271.57547,
1.452499986,271.2839355,
1.454166651,270.8206177,
1.455833316,270.6149292,
1.4575001,271.960083,
1.459166765,273.4336243,
1.460833311,270.8761902,
1.462499976,271.0236816,
1.464166641,272.6340637,
1.465833426,271.3253174,
1.467500091,272.8525085,
1.469166636,271.7418823,
1.470833302,271.9939575,
1.472499967,270.7901917,
1.474166751,271.1193848,
1.475833416,272.233429,
1.477500081,270.9674988,
1.479166627,271.41745,
1.480833292,270.2203064,
1.482500076,272.057251,
1.484166741,271.678833,
1.485833406,270.0994568,
1.487499952,269.4523621,
1.489166617,270.6601868,
1.490833402,271.4844666,
1.492500067,271.3035889,
1.494166732,270.9923706,
1.495833278,270.3242188,
1.497499943,271.8703003,
1.499166727,271.0674744,
1.500833392,274.3530884,
1.502500057,273.1304932,
1.504166722,271.9947815,
1.505833268,271.8919983,
1.507500052,270.1929321,
1.509166718,252.9982605,
1.510833383,248.5333862,
1.512500048,232.4431,
1.514166594,227.6667786,
1.515833378,218.1105652,
1.517500043,221.733963,
1.519166708,261.5518799,
1.520833373,260.1654968,
1.522499919,260.6634521,
1.524166703,260.3837891,
1.525833368,258.89151,
1.527500033,259.7269592,
1.529166698,261.4962158,
1.530833364,259.8364868,
1.532500029,261.2081909,
1.534166694,260.2444153,
1.535833359,219.6735535,
1.537500024,256.4322205,
1.539166689,217.592514,
1.540833354,257.1859436,
1.542500019,229.261322,
1.544166684,240.1641693,
1.545833349,246.4050751,
1.547500014,231.4001617,
1.549166799,258.6778259,
1.550833344,220.8247375,
1.55250001,247.7095642,
1.554166675,243.5011749,
1.55583334,227.9524078,
1.557500124,262.5794983,
1.55916667,230.8129578,
1.560833335,245.2574615,
1.5625,255.8562469,
1.564166665,231.6403198,
1.565833449,241.2953491,
1.567499995,242.5250854,
1.56916666,275.5973511,
1.570833325,276.6404724,
1.57249999,274.9535828,
1.574166775,277.4742126,
1.57583344,275.5256653,
1.577499986,275.7428284,
1.579166651,275.2893372,
1.580833316,276.4108582,
1.5825001,277.2390747,
1.584166765,277.7623901,
1.585833311,276.0578003,
1.587499976,277.3943787,
1.589166641,277.5374756,
1.590833426,278.3511963,
1.592500091,278.6734619,
1.594166636,278.0750732,
1.595833302,277.9816589,
1.597499967,278.4203796,
1.599166751,279.1336365,
1.600833416,279.463562,
1.602500081,280.0684509,
1.604166627,280.0908203,
1.605833292,278.6437683,
1.607500076,280.315033,
1.609166741,279.2989197,
1.610833406,279.9219666,
1.612499952,280.1891174,
1.614166617,280.244751,
1.615833402,281.849884,
1.617500067,282.296875,
1.619166732,280.2609253,
1.620833278,282.8576355,
1.622499943,280.9202881,
1.624166727,281.5319214,
1.625833392,281.329895,
1.627500057,282.0958252,
1.629166722,282.0603027,
1.630833268,282.6334534,
1.632500052,282.4007263,
1.634166718,283.0657654,
1.635833383,282.5950928,
1.637500048,285.6373291,
1.639166594,281.4718628,
1.640833378,283.097168,
1.642500043,283.6866455,
1.644166708,284.7474976,
1.645833373,284.2878113,
1.647499919,283.8945923,
1.649166703,284.4121399,
1.650833368,283.4931946,
1.652500033,283.185791,
1.654166698,284.8497314,
1.655833364,286.797821,
1.657500029,285.1893921,
1.659166694,284.0417175,
1.660833359,283.5784302,
1.662500024,284.7957764,
1.664166689,285.7692566,
1.665833354,283.7199707,
1.667500019,285.6920776,
1.669166684,284.0509338,
1.670833349,285.7015991,
1.672500014,285.5939026,
1.674166799,285.4625549,
1.675833344,287.0900879,
1.67750001,286.6145325,
1.679166675,286.7156982,
1.68083334,286.0183411,
1.682500124,286.826416,
1.68416667,286.0151672,
1.685833335,287.7225952,
1.6875,288.8785706,
1.689166665,287.1489563,
1.690833449,288.0973511,
1.692499995,285.4747314,
1.69416666,287.5974121,
1.695833325,287.6435242,
1.69749999,288.4173279,
1.699166775,287.6166382,
1.70083344,287.609314,
1.702499986,287.973053,
1.704166651,288.3358154,
1.705833316,287.6559753,
1.7075001,288.8076172,
1.709166765,289.1135254,
1.710833311,286.4198303,
1.712499976,287.9749756,
1.714166641,287.4408264,
1.715833426,286.0227356,
1.717500091,287.2999878,
1.719166636,287.7580872,
1.720833302,288.6112976,
1.722499967,289.743042,
1.724166751,287.1392517,
1.725833416,287.1792908,
1.727500081,289.4650574,
1.729166627,288.9947205,
1.730833292,289.6493835,
1.732500076,290.0155029,
1.734166741,290.3668213,
1.735833406,287.984436,
1.737499952,288.3320618,
1.739166617,289.3756409,
1.740833402,288.9134216,
1.742500067,288.843811,
1.744166732,292.2972107,
1.745833278,288.531189,
1.747499943,288.5013123,
1.749166727,286.3375854,
1.750833392,289.5639343,
1.752500057,290.5688477,
1.754166722,288.5293274,
1.755833268,290.1188965,
1.757500052,290.6705017,
1.759166718,288.4464417,
1.760833383,291.2712708,
1.762500048,288.9841614,
1.764166594,291.7588196,
1.765833378,290.0126648,
1.767500043,288.818512,
1.769166708,288.9447327,
1.770833373,291.1815796,
1.772499919,290.7336731,
1.774166703,290.079834,
1.775833368,290.4385376,
1.777500033,291.143219,
1.779166698,289.7724609,
1.780833364,291.6355896,
1.782500029,291.6613159,
1.784166694,290.3526917,
1.785833359,293.482605,
1.787500024,292.4289551,
1.789166689,290.7242432,
1.790833354,290.7488098,
1.792500019,290.0928345,
1.794166684,291.2677917,
1.795833349,291.4487,
1.797500014,290.3177185,
1.799166799,292.6125183,
1.800833344,290.8433228,
1.80250001,290.4653625,
1.804166675,292.6299133,
1.80583334,292.9291077,
1.807500124,290.6884766,
1.80916667,291.6897888,
1.810833335,292.0092468,
1.8125,291.6424255,
1.814166665,292.7863464,
1.815833449,291.4226379,
1.817499995,293.2544861,
1.81916666,292.6707153,
1.820833325,292.6529541,
1.82249999,293.2015381,
1.824166775,291.8239136,
1.82583344,292.0489197,
1.827499986,291.6993713,
1.829166651,292.0144348,
1.830833316,293.5894775,
1.8325001,292.3413696,
1.834166765,292.5492859,
1.835833311,293.4294128,
1.837499976,291.5611267,
1.839166641,292.9768677,
1.840833426,291.444397,
1.842500091,290.7254639,
1.844166636,292.2791138,
1.845833302,290.1516113,
1.847499967,291.8777466,
1.849166751,292.7229004,
1.850833416,291.6783142,
1.852500081,293.5360413,
1.854166627,291.0922852,
1.855833292,292.9446716,
1.857500076,294.0327148,
1.859166741,293.1864319,
1.860833406,292.6075439,
1.862499952,291.8661194,
1.864166617,294.1638794,
1.865833402,292.5283203,
1.867500067,294.7859192,
1.869166732,292.4086609,
1.870833278,292.7540283,
1.872499943,292.5412292,
1.874166727,291.0692749,
1.875833392,292.9899597,
1.877500057,291.5701904,
1.879166722,292.3399353,
1.880833268,293.3053284,
1.882500052,294.0999451,
1.884166718,292.3890381,
1.885833383,293.6296692,
1.887500048,293.6351929,
1.889166594,294.59021,
1.890833378,292.7241821,
1.892500043,293.214386,
1.894166708,291.4541016,
1.895833373,293.5849304,
1.897499919,291.8352356,
1.899166703,292.6247864,
1.900833368,292.3821411,
1.902500033,293.4370117,
1.904166698,294.84198,
1.905833364,292.9188232,
1.907500029,292.7314453,
1.909166694,292.541687,
1.910833359,294.2015076,
1.912500024,293.8659058,
1.914166689,293.9376526,
1.915833354,294.3783264,
1.917500019,295.1809692,
1.919166684,292.7700806,
1.920833349,293.9479065,
1.922500014,293.6774597,
1.924166799,294.7358093,
1.925833344,294.1340942,
1.92750001,294.8821106,
1.929166675,294.7907104,
1.93083334,294.0516968,
1.932500124,293.4698486,
1.93416667,296.1979065,
1.935833335,295.0048218,
1.9375,294.7331238,
1.939166665,295.0016174,
1.940833449,294.7617188,
1.942499995,295.9665527,
1.94416666,296.3002625,
1.945833325,294.6263123,
1.94749999,293.8923035,
1.949166775,292.9512329,
1.95083344,291.9299622,
1.952499986,293.0905457,
1.954166651,296.3138733,
1.955833316,298.1037598,
1.9575001,295.7140808,
1.959166765,293.428833,
1.960833311,293.9835205,
1.962499976,293.0655518,
1.964166641,294.105011,
1.965833426,292.6339417,
1.967500091,294.0377502,
1.969166636,293.8945007,
1.970833302,294.8275452,
1.972499967,293.2701416,
1.974166751,295.5160522,
1.975833416,294.9684143,
1.977500081,292.7658691,
1.979166627,292.2438354,
1.980833292,294.4779968,
1.982500076,293.888916,
1.984166741,295.0608826,
1.985833406,295.7192383,
1.987499952,296.3891907,
1.989166617,294.4847107,
1.990833402,294.9894714,
1.992500067,295.1051331,
1.994166732,294.0502625,
1.995833278,294.9072266,
1.997499943,294.6663818,
1.999166727,293.1068115,
2.000833273,294.7156067,
2.002500057,293.7875366,
2.004166603,295.180542,
2.005833387,295.4421387,
2.007500172,293.9073486,
2.009166718,293.1787109,
2.010833263,294.7134399,
2.012500048,293.3042603,
2.014166594,295.5861206,
2.015833378,293.648407,
2.017500162,293.0313721,
2.019166708,294.1078491,
2.020833254,293.850769,
2.022500038,294.4942322,
2.024166822,294.5470886,
2.025833368,293.5098877,
2.027499914,295.6431885,
2.029166698,295.3684998,
2.030833244,296.8055725,
2.032500029,295.5230408,
2.034166813,294.0186157,
2.035833359,293.0031128,
2.037499905,296.1457214,
2.039166689,295.3167419,
2.040833473,294.4528198,
2.042500019,294.3703613,
2.044166803,294.7034912,
2.045833349,294.0604553,
2.047499895,294.5014648,
2.049166679,295.3165588,
2.050833464,294.9203796,
2.05250001,293.3828125,
2.054166555,293.9555969,
2.05583334,296.5965576,
2.057500124,296.7657166,
2.05916667,295.0621948,
2.060833454,295.3051758,
2.0625,293.9824829,
2.064166546,296.055603,
2.06583333,296.5192871,
2.067500114,296.0577698,
2.06916666,297.5515137,
2.070833445,293.6439514,
2.07249999,294.4304504,
2.074166775,293.5178528,
2.075833321,294.5034485,
2.077500105,295.3155212,
2.079166651,294.5266724,
2.080833197,296.2055054,
2.082499981,294.41745,
2.084166765,294.4345703,
2.085833311,294.4250793,
2.087500095,294.6621094,
2.089166641,292.9766846,
2.090833426,294.9570007,
2.092499971,296.7566833,
2.094166756,296.6865234,
2.095833302,294.9117126,
2.097500086,296.1724243,
2.099166632,293.8117065,
2.100833416,295.4364319,
2.102499962,294.7263794,
2.104166746,295.440094,
2.105833292,296.5083313,
2.107500076,296.092926,
2.109166622,294.2615662,
2.110833406,296.0578918,
2.112499952,293.6716919,
2.114166737,296.3072815,
2.115833521,295.3362122,
2.117500067,295.648468,
2.119166613,294.5417175,
2.120833397,293.2427979,
2.122499943,295.723999,
2.124166727,297.9876709,
2.125833273,294.4159851,
2.127500057,295.6752625,
2.129166603,295.7950134,
2.130833387,297.6091614,
2.132500172,295.7998047,
2.134166718,294.8118896,
2.135833502,295.2582092,
2.137500048,293.5257263,
2.139166832,296.8208008,
2.140833378,295.3712769,
2.142500162,295.1557007,
2.144166708,298.7388916,
2.145833254,298.4931641,
2.147500038,296.7117615,
2.149166584,295.8357849,
2.150833368,296.158844,
2.152500153,295.3428955,
2.154166698,294.9819336,
2.155833483,295.8017273,
2.157500029,294.1802368,
2.159166813,296.1939392,
2.160833597,296.3287354,
2.162499905,296.2107544,
2.164166689,294.5089111,
2.165833235,295.8427124,
2.167500019,295.7993164,
2.169166803,294.7223511,
2.170833349,296.2339478,
2.172500134,296.3954773,
2.174166679,295.2927551,
2.175833464,294.8527832,
2.177500248,295.0930176,
2.179166555,295.0560303,
2.18083334,294.6643677,
2.182499886,296.1818237,
2.18416667,295.4850769,
2.185833454,296.5982971,
2.1875,296.7840576,
2.189166784,296.0405579,
2.19083333,297.1287537,
2.192500114,295.3771362,
2.194166899,297.6176147,
2.195833445,296.3841858,
2.19749999,295.6387939,
2.199166536,296.1537781,
2.200833321,295.5746155,
2.202500105,295.6471252,
2.204166651,294.3808289,
2.205833435,297.9364624,
2.207499981,296.5698853,
2.209166765,297.0733337,
2.210833549,295.1351929,
2.212500095,295.7463684,
2.21416688,295.1208801,
2.215833187,296.8232117,
2.217499971,296.7947998,
2.219166756,297.9881287,
2.220833302,296.6333313,
2.222500086,296.3565369,
2.224166632,296.7624207,
2.225833416,297.0250549,
2.2275002,294.5050964,
2.229166746,296.9754028,
2.23083353,296.2563782,
2.232499838,296.0446472,
2.234166622,297.2218933,
2.235833406,297.4107666,
2.237499952,298.37854,
2.239166737,296.4993591,
2.240833282,297.2902832,
2.242500067,297.8640747,
2.244166851,296.8683777,
2.245833397,299.2004089,
2.247500181,296.8744202,
2.249166727,296.6281128,
2.250833273,296.5665283,
2.252500057,297.3276978,
2.254166603,296.8442383,
2.255833387,295.1896057,
2.257499933,296.6448975,
2.259166718,296.9814453,
2.260833502,298.1939697,
2.262500048,297.2647705,
2.264166832,295.3930664,
2.265833378,297.2695007,
2.267500162,295.8499451,
2.269166708,297.2310181,
2.270833254,298.72995,
2.272500038,298.6393127,
2.274166584,296.790802,
2.275833368,296.8545532,
2.277500153,295.0624695,
2.279166698,296.0094299,
2.280833483,296.024231,
2.282500029,297.8631287,
2.284166813,295.4388428,
2.285833597,296.3208923,
2.287499905,296.2663879,
2.289166689,295.6157532,
2.290833235,296.432373,
2.292500019,296.0760803,
2.294166803,296.3732605,
2.295833349,296.0753174,
2.297500134,295.89328,
2.299166679,296.5292969,
2.300833464,296.2422791,
2.302500248,298.3608704,
2.304166555,297.4139709,
2.30583334,297.6105957,
2.307499886,295.6332397,
2.30916667,297.1253662,
2.310833454,297.3928223,
2.3125,295.0415039,
2.314166784,296.8388977,
2.31583333,297.736908,
2.317500114,296.5364685,
2.319166899,296.9947815,
2.320833445,295.7012024,
2.32249999,296.2870178,
2.324166536,295.8850708,
2.325833321,296.181488,
2.327500105,296.6501465,
2.329166651,297.1050415,
2.330833435,296.7593384,
2.332499981,295.7940369,
2.334166765,295.4355164,
2.335833549,295.2414551,
2.337500095,296.2597656,
2.33916688,296.2379456,
2.340833187,295.874939,
2.342499971,297.8892212,
2.344166756,298.4705505,
2.345833302,296.5304565,
2.347500086,300.2829285,
2.349166632,295.1839294,
2.350833416,296.6744385,
2.3525002,296.4850769,
2.354166746,296.985199,
2.35583353,296.7049561,
2.357499838,297.9770813,
2.359166622,297.4130859,
2.360833406,295.5630493,
2.362499952,296.8835754,
2.364166737,295.8233337,
2.365833282,295.3189087,
2.367500067,295.7811279,
2.369166851,295.1292419,
2.370833397,298.3094788,
2.372500181,296.5752258,
2.374166727,296.0513916,
2.375833273,296.4908752,
2.377500057,298.959137,
2.379166603,295.5329285,
2.380833387,296.380188,
2.382499933,296.7277222,
2.384166718,296.3400574,
2.385833502,298.119751,
2.387500048,298.3466492,
2.389166832,298.1219482,
2.390833378,298.8436584,
2.392500162,296.8735962,
2.394166708,295.836792,
2.395833254,297.1486511,
2.397500038,296.7349854,
2.399166584,298.3451233,
2.400833368,297.6456909,
2.402500153,298.6344299,
2.404166698,295.9567261,
2.405833483,296.2980957,
2.407500029,297.3812256,
2.409166813,297.3336792,
2.410833597,295.8336487,
2.412499905,297.4148865,
2.414166689,297.1017151,
2.415833235,296.4570007,
2.417500019,297.3197937,
2.419166803,296.7667542,
2.420833349,294.9718323,
2.422500134,296.0116882,
2.424166679,296.8651123,
2.425833464,296.079895,
2.427500248,296.0810547,
2.429166555,296.3985596,
2.43083334,296.5882874,
2.432499886,296.7202454,
2.43416667,296.7366638,
2.435833454,296.9958496,
2.4375,295.722168,
2.439166784,298.0618591,
2.44083333,296.9277649,
2.442500114,296.4285278,
2.444166899,296.7951965,
2.445833445,297.6813965,
2.44749999,296.4263916,
2.449166536,297.9666748,
2.450833321,298.4575195,
2.452500105,297.2211914,
2.454166651,296.3764648,
2.455833435,295.4882813,
2.457499981,296.2524414,
2.459166765,296.743103,
2.460833549,296.8835144,
2.462500095,298.1187439,
2.46416688,295.1277771,
2.465833187,298.3480835,
2.467499971,297.2563477,
2.469166756,296.7688904,
2.470833302,297.5306091,
2.472500086,299.0642395,
2.474166632,296.4081116,
2.475833416,296.8067627,
2.4775002,296.5308228,
2.479166746,297.2453918,
2.48083353,298.1104736,
2.482499838,298.028717,
2.484166622,296.2929077,
2.485833406,297.7950439,
2.487499952,297.0996704,
2.489166737,298.6160889,
2.490833282,298.7796936,
2.492500067,298.1156921,
2.494166851,297.954071,
2.495833397,296.4497986,
2.497500181,297.3027344,
2.499166727,298.4310913,
2.500833273,297.6417847,
2.502500057,295.84375,
2.504166603,297.9620361,
2.505833387,297.7935791,
2.507499933,298.0014648,
2.509166718,297.4294128,
2.510833502,295.0167542,
2.512500048,298.5549011,
2.514166832,297.5722351,
2.515833378,297.8416748,
2.517500162,297.7073364,
2.519166708,295.5861206,
2.520833254,296.7788391,
2.522500038,296.8235168,
2.524166584,297.0281372,
2.525833368,297.3851013,
2.527500153,297.8647156,
2.529166698,298.2127686,
2.530833483,298.2398071,
2.532500029,298.610199,
2.534166813,297.5932007,
2.535833597,297.8865051,
2.537499905,296.6819153,
2.539166689,295.6235657,
2.540833235,297.0293579,
2.542500019,297.131958,
2.544166803,296.9873657,
2.545833349,297.3830566,
2.547500134,297.4341125,
2.549166679,298.0688782,
2.550833464,298.5906372,
2.552500248,296.2852478,
2.554166555,298.4667664,
2.55583334,297.591095,
2.557499886,298.6984558,
2.55916667,297.2552795,
2.560833454,297.2504272,
2.5625,298.7520142,
2.564166784,299.0036011,
2.56583333,297.4206848,
2.567500114,298.364502,
2.569166899,298.1556091,
2.570833445,297.513916,
2.57249999,296.5036316,
2.574166536,296.6566162,
2.575833321,297.3562927,
2.577500105,298.0972595,
2.579166651,298.2412109,
2.580833435,296.4900513,
2.582499981,297.6801453,
2.584166765,297.6742249,
2.585833549,298.3432617,
2.587500095,299.1170654,
2.58916688,296.8236694,
2.590833187,297.5144958,
2.592499971,297.7428589,
2.594166756,297.0619202,
2.595833302,297.9007568,
2.597500086,296.6764221,
2.599166632,296.4206238,
2.600833416,299.125061,
2.6025002,297.2723999,
2.604166746,298.1797791,
2.60583353,297.8999634,
2.607499838,296.9983521,
2.609166622,297.1349792,
2.610833406,298.2012939,
2.612499952,299.0049133,
2.614166737,297.8302002,
2.615833282,296.2907104,
2.617500067,296.5223694,
2.619166851,296.5977783,
2.620833397,297.23172,
2.622500181,296.8457947,
2.624166727,297.1740112,
2.625833273,299.5613708,
2.627500057,297.4076843,
2.629166603,298.8762207,
2.630833387,299.2075195,
2.632499933,297.401001,
2.634166718,298.2519531,
2.635833502,295.6409302,
2.637500048,297.3738708,
2.639166832,298.0895081,
2.640833378,297.9821167,
2.642500162,296.7300415,
2.644166708,298.9526978,
2.645833254,296.7390137,
2.647500038,296.9588318,
2.649166584,297.6557922,
2.650833368,296.3031921,
2.652500153,298.2666016,
2.654166698,296.184021,
2.655833483,297.2778931,
2.657500029,297.5052185,
2.659166813,299.2179871,
2.660833597,298.3243408,
2.662499905,297.4632874,
2.664166689,297.8462524,
2.665833235,296.346405,
2.667500019,295.7481995,
2.669166803,297.2146606,
2.670833349,297.2471313,
2.672500134,297.0054626,
2.674166679,297.665802,
2.675833464,296.3241577,
2.677500248,298.6776123,
2.679166555,297.9240112,
2.68083334,299.7804565,
2.682499886,297.7176514,
2.68416667,297.3613892,
2.685833454,296.0047913,
2.6875,296.4394531,
2.689166784,298.8789063,
2.69083333,297.7517395,
2.692500114,299.1918335,
2.694166899,296.5158997,
2.695833445,296.5323792,
2.69749999,296.2095032,
2.699166536,299.8763733,
2.700833321,298.0608521,
2.702500105,297.3780823,
2.704166651,296.9280701,
2.705833435,299.1141052,
2.707499981,299.3836975,
2.709166765,296.7527771,
2.710833549,297.8102722,
2.712500095,298.221405,
2.71416688,299.7115173,
2.715833187,297.035553,
2.717499971,296.5050354,
2.719166756,298.4165039,
2.720833302,297.6679077,
2.722500086,297.4044495,
2.724166632,297.6337891,
2.725833416,296.9704285,
2.7275002,297.3284607,
2.729166746,298.420105,
2.73083353,298.6566467,
2.732499838,296.7632751,
2.734166622,298.1980591,
2.735833406,298.1898193,
2.737499952,297.5191956,
2.739166737,298.2499695,
2.740833282,298.3851013,
2.742500067,297.6488953,
2.744166851,299.1828918,
2.745833397,297.0739136,
2.747500181,296.5848389,
2.749166727,297.5458984,
2.750833273,299.5015564,
2.752500057,294.7144775,
2.754166603,297.3249817,
2.755833387,299.4780273,
2.757499933,298.4111633,
2.759166718,298.6396179,
2.760833502,298.1852417,
2.762500048,297.4571838,
2.764166832,297.1617432,
2.765833378,298.6837463,
2.767500162,299.6526489,
2.769166708,298.6202087,
2.770833254,299.0184326,
2.772500038,298.8343506,
2.774166584,297.9064941,
2.775833368,298.4385376,
2.777500153,298.9025574,
2.779166698,299.2850037,
2.780833483,298.1128235,
2.782500029,299.1140747,
2.784166813,298.2712097,
2.785833597,300.4313049,
2.787499905,298.7424011,
2.789166689,297.1513367,
2.790833235,295.8897095,
2.792500019,296.1194763,
2.794166803,298.0859375,
2.795833349,298.2425842,
2.797500134,297.3351135,
2.799166679,297.8747559,
2.800833464,297.299408,
2.802500248,297.9823914,
2.804166555,297.9979248,
2.80583334,296.4956055,
2.807499886,298.9649353,
2.80916667,296.1860352,
2.810833454,296.8765869,
2.8125,297.1456604,
2.814166784,298.1118774,
2.81583333,294.5547485,
2.817500114,299.4961243,
2.819166899,298.8049927,
2.820833445,297.3352051,
2.82249999,297.8542786,
2.824166536,298.5595703,
2.825833321,298.4768677,
2.827500105,296.6468506,
2.829166651,297.8694458,
2.830833435,297.94104,
2.832499981,297.7093811,
2.834166765,297.6585083,
2.835833549,296.7672424,
2.837500095,297.2449341,
2.83916688,296.1781921,
2.840833187,297.4849548,
2.842499971,298.5354004,
2.844166756,297.8308105,
2.845833302,296.5950012,
2.847500086,297.1400452,
2.849166632,298.2375488,
2.850833416,299.5708618,
2.8525002,298.6268005,
2.854166746,297.6636047,
2.85583353,296.5904541,
2.857499838,300.0979004,
2.859166622,299.8305359,
2.860833406,301.6314697,
2.862499952,297.5700073,
2.864166737,295.6768494,
2.865833282,297.4481506,
2.867500067,297.5264587,
2.869166851,297.0993958,
2.870833397,299.2948914,
2.872500181,298.5526123,
2.874166727,300.227356,
2.875833273,296.747467,
2.877500057,298.1421204,
2.879166603,298.2694702,
2.880833387,297.6817322,
2.882499933,298.5757141,
2.884166718,297.9807129,
2.885833502,298.5120544,
2.887500048,298.1561279,
2.889166832,297.8727112,
2.890833378,297.3966064,
2.892500162,297.5354919,
2.894166708,297.9929504,
2.895833254,296.6895142,
2.897500038,297.4338989,
2.899166584,296.1882019,
2.900833368,295.3062134,
2.902500153,299.5857239,
2.904166698,298.8182373,
2.905833483,299.4263306,
2.907500029,298.3905945,
2.909166813,298.7465515,
2.910833597,298.7080078,
2.912499905,295.4858704,
2.914166689,298.2661743,
2.915833235,296.8294067,
2.917500019,298.7336731,
2.919166803,298.3638306,
2.920833349,298.1450195,
2.922500134,297.6798096,
2.924166679,298.3699341,
2.925833464,298.5323792,
2.927500248,298.5661316,
2.929166555,298.176239,
2.93083334,298.5487366,
2.932499886,297.2969666,
2.93416667,296.5909424,
2.935833454,298.6757813,
2.9375,298.3632202,
2.939166784,298.9323425,
2.94083333,298.0774841,
2.942500114,298.8417053,
2.944166899,298.4686584,
2.945833445,299.5445557,
2.94749999,299.4658203,
2.949166536,299.4315796,
2.950833321,298.8001709,
2.952500105,301.138855,
2.954166651,296.8467407,
2.955833435,297.7392883,
2.957499981,296.8544312,
2.959166765,298.7877197,
2.960833549,296.6968079,
2.962500095,299.8330383,
2.96416688,297.7977295,
2.965833187,297.8540955,
2.967499971,299.1593323,
2.969166756,297.9997253,
2.970833302,299.651825,
2.972500086,298.3739624,
2.974166632,298.0380554,
2.975833416,298.5184937,
2.9775002,301.0854492,
2.979166746,295.9458923,
2.98083353,298.4866943,
2.982499838,297.5283508,
2.984166622,298.4411926,
2.985833406,298.3512268,
2.987499952,299.6013184,
2.989166737,298.1213989,
2.990833282,299.7366638,
2.992500067,299.0533142,
2.994166851,296.9572449,
2.995833397,298.4326477,
2.997500181,299.5370483,
2.999166727,296.7789917,
3.000833273,298.3443909,
3.002500057,297.0002441,
3.004166603,298.3672791,
3.005833387,298.280304,
3.007499933,298.4718323,
3.009166718,299.4710083,
3.010833502,297.2698975,
3.012500048,297.2800598,
3.014166832,297.0307922,
3.015833378,296.6562195,
3.017500162,297.672821,
3.019166708,300.4527893,
3.020833254,299.7355652,
3.022500038,295.4821167,
3.024166584,298.4683838,
3.025833368,300.051178,
3.027500153,300.1025085,
3.029166698,297.7688904,
3.030833483,299.4996948,
3.032500029,296.5270996,
3.034166813,300.105072,
3.035833597,298.8404846,
3.037499905,299.1607056,
3.039166689,297.8141479,
3.040833235,298.4162292,
3.042500019,297.1550598,
3.044166803,299.633606,
3.045833349,298.6095581,
3.047500134,299.0488892,
3.049166679,297.8452148,
3.050833464,297.3255615,
3.052500248,299.1398621,
3.054166555,297.3930359,
3.05583334,299.4665222,
3.057499886,297.6766968,
3.05916667,299.3895874,
3.060833454,299.2177124,
3.0625,296.717804,
3.064166784,299.1807861,
3.06583333,298.853302,
3.067500114,299.6191406,
3.069166899,298.5003052,
3.070833445,295.8413086,
3.07249999,298.3771362,
3.074166536,300.2079163,
3.075833321,299.125061,
3.077500105,298.9536743,
3.079166651,299.1148682,
3.080833435,298.9944458,
3.082499981,298.2166443,
3.084166765,299.7750854,
3.085833549,298.4229126,
3.087500095,298.3671875,
3.08916688,299.8465271,
3.090833187,297.1602173,
3.092499971,298.0108643,
3.094166756,298.9802856,
3.095833302,298.6500244,
3.097500086,297.5763245,
3.099166632,298.4487305,
3.100833416,299.2123108,
3.1025002,299.3679199,
3.104166746,298.555603,
3.10583353,296.8551331,
3.107499838,299.6689758,
3.109166622,299.724884,
3.110833406,297.4408875,
3.112499952,299.422699,
3.114166737,297.87323,
3.115833282,298.3840332,
3.117500067,297.621582,
3.119166851,298.1091614,
3.120833397,299.9155579,
3.122500181,297.8132324,
3.124166727,298.2537537,
3.125833273,298.1984558,
3.127500057,300.1238708,
3.129166603,299.3468323,
3.130833387,300.4664917,
3.132499933,300.0585022,
3.134166718,300.3104858,
3.135833502,298.9885254,
3.137500048,297.430481,
3.139166832,300.1168518,
3.140833378,299.6980591,
3.142500162,297.9541626,
3.144166708,298.5094604,
3.145833254,298.6421509,
3.147500038,299.1760864,
3.149166584,298.6696167,
3.150833368,298.714325,
3.152500153,296.2015991,
3.154166698,297.7806702,
3.155833483,301.963501,
3.157500029,297.5343018,
3.159166813,298.2392578,
3.160833597,300.4904175,
3.162499905,299.5724792,
3.164166689,298.3678284,
3.165833235,298.0554199,
3.167500019,299.8114014,
3.169166803,300.7756042,
3.170833349,299.5562744,
3.172500134,299.3843384,
3.174166679,297.7019653,
3.175833464,297.0956726,
3.177500248,298.961853,
3.179166555,299.3137512,
3.18083334,299.2350769,
3.182499886,299.2095337,
3.18416667,299.2028809,
3.185833454,298.8403015,
3.1875,297.6342773,
3.189166784,299.331604,
3.19083333,299.4483643,
3.192500114,299.8562927,
3.194166899,299.5605469,
3.195833445,301.4536438,
3.19749999,298.9450989,
3.199166536,298.8609619,
3.200833321,298.6519775,
3.202500105,297.4082642,
3.204166651,299.7120361,
3.205833435,298.5069275,
3.207499981,299.2696838,
3.209166765,298.0476074,
3.210833549,299.1844788,
3.212500095,298.4235535,
3.21416688,299.5662842,
3.215833187,299.793396,
3.217499971,299.5031433,
3.219166756,299.2191162,
3.220833302,297.5690308,
3.222500086,297.6994324,
3.224166632,298.7700806,
3.225833416,299.055603,
3.2275002,299.7631531,
3.229166746,298.1156311,
3.23083353,296.3466797,
3.232499838,297.6175537,
3.234166622,299.3910828,
3.235833406,299.3019409,
3.237499952,299.1295471,
3.239166737,298.11203,
3.240833282,299.1773071,
3.242500067,298.8279724,
3.244166851,297.6665039,
3.245833397,299.3166809,
3.247500181,298.3377991,
3.249166727,299.0982666,
3.250833273,297.0667725,
3.252500057,299.09198,
3.254166603,298.966217,
3.255833387,298.0258789,
3.257499933,298.9269714,
3.259166718,299.844696,
3.260833502,299.2877502,
3.262500048,298.6619568,
3.264166832,295.8186646,
3.265833378,299.2366943,

