1,,
Time (min),Intensity (a.u.),
0.0008333333535,300.2198486,
0.002500000177,299.9416199,
0.004166666884,300.2458801,
0.005833333358,300.390686,
0.007500000298,300.0191345,
0.009166667238,298.5451965,
0.01083333418,301.3799744,
0.01250000019,300.3345032,
0.01416666713,302.7457581,
0.01583333313,301.0585327,
0.01750000194,299.7193604,
0.01916666701,299.7362061,
0.02083333395,300.6373596,
0.02250000089,300.2848206,
0.02416666783,298.1546631,
0.02583333477,299.5206604,
0.02749999985,301.7857361,
0.02916666679,300.2786255,
0.03083333373,301.7872009,
0.03250000253,300.2717285,
0.03416666761,300.5914917,
0.03583333641,298.9154053,
0.03750000149,298.9628601,
0.03916667029,299.0194397,
0.04083333537,300.3371887,
0.04250000045,301.8893738,
0.04416666925,299.922821,
0.04583333433,300.9657898,
0.04750000313,300.1076355,
0.04916666821,300.0005798,
0.05083333328,300.1328735,
0.05250000209,298.7186584,
0.05416666716,300.9256897,
0.05583333597,301.310791,
0.05750000104,299.5189819,
0.05916666612,300.818634,
0.06083333492,300.4110718,
0.0625,300.2306213,
0.06416667253,301.5702515,
0.0658333376,300.2797241,
0.06750000268,299.6936035,
0.06916666776,300.8685608,
0.07083333284,300.6947632,
0.07249999791,300.5266724,
0.07416667044,300.9699097,
0.07583333552,299.7878418,
0.0775000006,301.171814,
0.07916666567,299.4334106,
0.08083333075,299.1056213,
0.08250000328,300.375946,
0.08416666836,300.5114136,
0.08583333343,301.0069885,
0.08749999851,299.0938416,
0.08916666359,299.7966919,
0.09083333611,301.2613525,
0.09250000119,298.9309387,
0.09416666627,299.634613,
0.09583333135,298.0831299,
0.09749999642,300.8856812,
0.09916666895,300.4498291,
0.100833334,300.2106934,
0.1024999991,300.8688354,
0.1041666642,301.8964539,
0.1058333293,299.5262146,
0.1075000018,299.2741394,
0.1091666669,301.1702271,
0.1108333319,299.7226563,
0.112499997,301.2175903,
0.1141666621,300.035614,
0.1158333346,299.3076477,
0.1174999997,299.1352844,
0.1191666648,299.0943604,
0.1208333299,297.6106262,
0.1224999949,300.9162292,
0.1241666749,299.890564,
0.1258333325,300.0951538,
0.1274999976,300.9226379,
0.1291666627,300.8976135,
0.1308333278,299.7940979,
0.1325000077,301.4973755,
0.1341666728,298.3710327,
0.1358333379,299.5979919,
0.137500003,299.9695435,
0.1391666681,300.1278076,
0.1408333331,299.676178,
0.1424999982,300.5318604,
0.1441666782,299.0135803,
0.1458333284,299.4642029,
0.1475000083,299.6351624,
0.1491666585,299.1674805,
0.1508333385,299.427124,
0.1525000036,300.3393555,
0.1541666687,300.7429504,
0.1558333337,299.9172363,
0.1574999988,297.3662109,
0.1591666639,299.5631409,
0.1608333439,298.7810974,
0.162499994,300.0827942,
0.164166674,300.1187134,
0.1658333242,300.8735046,
0.1675000042,299.9565125,
0.1691666692,299.6593628,
0.1708333343,298.1551819,
0.1724999994,301.0222778,
0.1741666645,299.5653076,
0.1758333296,298.8785095,
0.1775000095,299.3045349,
0.1791666597,300.57724,
0.1808333397,299.0516968,
0.1824999899,299.9034119,
0.1841666698,299.925415,
0.1858333498,299.011261,
0.1875,301.2583008,
0.18916668,298.2206421,
0.1908333302,298.5439453,
0.1925000101,299.5133057,
0.1941666752,299.0762024,
0.1958333403,299.8658447,
0.1975000054,300.2010498,
0.1991666704,300.1423035,
0.2008333355,298.8964844,
0.2025000155,299.5439148,
0.2041666657,301.7985535,
0.2058333457,300.913147,
0.2074999958,299.5650635,
0.2091666758,300.7608643,
0.2108333409,298.5455933,
0.212500006,297.8309021,
0.214166671,300.2476196,
0.2158333361,299.7462769,
0.2175000012,300.1451721,
0.2191666812,299.3355103,
0.2208333313,300.8915405,
0.2225000113,299.644043,
0.2241666615,300.2069092,
0.2258333415,301.0211182,
0.2275000066,300.0404358,
0.2291666716,300.2050171,
0.2308333367,299.0524292,
0.2325000018,299.1362915,
0.2341666669,300.5384827,
0.2358333468,299.3370667,
0.237499997,299.8246155,
0.239166677,299.2085876,
0.2408333272,299.4697571,
0.2425000072,300.9048767,
0.2441666722,299.7988586,
0.2458333373,300.7946167,
0.2475000024,299.8474731,
0.2491666675,301.3683167,
0.2508333325,299.2839661,
0.2524999976,299.9093628,
0.2541666627,300.1802979,
0.2558333278,300.2421265,
0.2574999928,300.8852539,
0.2591666579,297.9772339,
0.2608333528,300.7830811,
0.2624999881,299.3290405,
0.264166683,299.4057007,
0.2658333182,300.7604675,
0.2675000131,299.7763062,
0.2691666484,300.7511902,
0.2708333433,299.1811218,
0.2725000083,299.3347168,
0.2741666734,299.6941223,
0.2758333385,299.7653809,
0.2775000036,299.4910583,
0.2791666687,300.3056641,
0.2808333337,298.1324463,
0.2824999988,299.7883911,
0.2841666937,298.3659058,
0.285833329,299.9136658,
0.287499994,299.9946289,
0.2891666591,299.557373,
0.290833354,299.9066162,
0.2925000191,300.0569153,
0.2941666543,299.0395203,
0.2958333194,300.1260986,
0.2975000143,301.5107727,
0.2991666794,300.8835144,
0.3008333445,299.6504517,
0.3024999797,299.7953491,
0.3041666746,299.5810852,
0.3058333397,299.6825867,
0.3075000048,299.0767212,
0.3091666996,298.6737366,
0.3108333349,301.3605957,
0.3125,299.2759705,
0.3141666651,300.3145447,
0.31583336,298.2524414,
0.317500025,300.3721924,
0.3191666603,299.3613586,
0.3208333254,299.5639954,
0.3225000203,299.2575073,
0.3241666853,300.2202454,
0.3258333504,301.6610718,
0.3274999857,300.1560059,
0.3291666806,298.8884583,
0.3308333457,301.4790955,
0.3325000107,297.4913025,
0.3341666758,297.9453125,
0.3358333409,301.4082642,
0.337500006,294.5330505,
0.339166671,300.7233582,
0.3408333361,299.3616943,
0.342500031,300.4143982,
0.3441666663,300.6125793,
0.3458333313,299.4689331,
0.3474999964,299.1551514,
0.3491666913,298.1735229,
0.3508333564,299.4292908,
0.3524999917,300.4740295,
0.3541666567,297.6142883,
0.3558333516,300.515564,
0.3575000167,297.341095,
0.3591666818,300.0516052,
0.360833317,297.925415,
0.3625000119,298.4816284,
0.364166677,299.4729614,
0.3658333421,300.8365479,
0.3675000072,299.7690735,
0.3691666722,300.3375244,
0.3708333373,300.2469177,
0.3725000024,300.0557861,
0.3741666675,297.638916,
0.3758333623,297.7349854,
0.3774999976,297.8388977,
0.3791666627,299.3101501,
0.3808333278,299.2228699,
0.3825000226,299.118103,
0.3841666877,299.3699036,
0.385833323,300.8279724,
0.3874999881,299.0153503,
0.389166683,300.6806335,
0.390833348,300.2777405,
0.3925000131,298.2573853,
0.3941666484,300.7338562,
0.3958333433,298.4866333,
0.3975000083,299.6719971,
0.3991666734,297.3989868,
0.4008333385,300.414093,
0.4025000036,299.2663574,
0.4041666687,299.5823059,
0.4058333337,299.6333618,
0.4074999988,299.3126831,
0.4091666937,299.3876038,
0.410833329,298.6384888,
0.412499994,299.5878906,
0.4141666591,299.9630432,
0.415833354,298.5803833,
0.4175000191,300.0198669,
0.4191666543,299.8890991,
0.4208333194,300.2601624,
0.4225000143,298.3908386,
0.4241666794,299.2542419,
0.4258333445,300.0724182,
0.4274999797,299.4726563,
0.4291666746,300.907959,
0.4308333397,299.7850952,
0.4325000048,300.8718872,
0.4341666996,300.7311096,
0.4358333349,297.9569702,
0.4375,298.5739441,
0.4391666651,300.0699463,
0.44083336,299.3673401,
0.442500025,300.9528503,
0.4441666603,299.7112427,
0.4458333254,299.1427612,
0.4475000203,297.6359253,
0.4491666853,299.056427,
0.4508333504,298.0443115,
0.4524999857,298.0463562,
0.4541666806,300.2951355,
0.4558333457,300.1664429,
0.4575000107,299.3733826,
0.4591666758,300.2137451,
0.4608333409,300.8729553,
0.462500006,298.3346558,
0.464166671,299.3184509,
0.4658333361,297.9564819,
0.467500031,298.8604126,
0.4691666663,299.4834595,
0.4708333313,299.6704102,
0.4724999964,300.8609009,
0.4741666913,299.0352478,
0.4758333564,299.6013184,
0.4774999917,300.21698,
0.4791666567,298.3137207,
0.4808333516,297.4446716,
0.4825000167,299.4182434,
0.4841666818,300.8519592,
0.485833317,298.9807129,
0.4875000119,299.4131775,
0.489166677,299.0550537,
0.4908333421,298.8663025,
0.4925000072,297.9259033,
0.4941666722,299.6222534,
0.4958333373,299.0374756,
0.4975000024,298.2678528,
0.4991666675,299.2428894,
0.5008333325,299.5914612,
0.5024999976,300.9968872,
0.5041666627,297.684967,
0.5058333278,299.6384277,
0.5074999928,298.6437683,
0.5091666579,301.5121155,
0.510833323,299.5321045,
0.5124999881,299.1188354,
0.5141666532,299.8087158,
0.5158333182,299.3527222,
0.5175000429,297.8822632,
0.5191666484,300.153717,
0.5208333135,300.5179138,
0.5224999785,300.8970032,
0.5241667032,300.3654175,
0.5258333683,298.6957092,
0.5274999738,298.6286011,
0.5291666389,300.2550049,
0.5308333635,299.2562866,
0.5325000286,298.7752991,
0.5341666341,299.3071899,
0.5358333588,298.7550659,
0.5375000238,298.8135681,
0.5391666889,300.6136475,
0.540833354,298.8123474,
0.5424999595,301.1662292,
0.5441666842,301.8590393,
0.5458333492,298.6746826,
0.5475000143,298.7532043,
0.5491666794,298.4137878,
0.5508333445,298.4935913,
0.5525000095,300.4532471,
0.5541666746,298.3182983,
0.5558333993,297.8796387,
0.5575000048,299.6157227,
0.5591666698,299.8117676,
0.5608333349,298.7161255,
0.5625,298.9699707,
0.5641667247,299.8806763,
0.5658333302,299.2390442,
0.5674999952,298.7402954,
0.5691667199,297.8139038,
0.5708333254,299.1621399,
0.5725000501,299.6921692,
0.5741666555,299.7195435,
0.5758333206,299.4452515,
0.5775000453,299.2266846,
0.5791666508,298.2381287,
0.5808333755,298.9013367,
0.5825000405,297.849762,
0.584166646,298.6383362,
0.5858333707,298.7512512,
0.5874999762,299.6963501,
0.5891667008,299.0406189,
0.5908333659,299.4620056,
0.5924999714,300.2911682,
0.5941666961,300.6130981,
0.5958333611,298.2332153,
0.5975000262,298.8102112,
0.5991666913,297.3894043,
0.6008332968,301.1433411,
0.6025000215,299.2629089,
0.6041666865,298.9066162,
0.6058333516,297.7267456,
0.6075000167,299.0206299,
0.6091666818,299.4888916,
0.6108333468,298.4850464,
0.6125000119,298.964325,
0.614166677,298.891449,
0.6158333421,298.877594,
0.6175000072,299.3521729,
0.6191666722,298.5188293,
0.6208333373,297.1988525,
0.622500062,299.5681152,
0.6241666675,298.2604065,
0.6258333325,299.7003479,
0.6274999976,299.8159485,
0.6291666627,298.9953308,
0.6308333874,298.4343262,
0.6324999928,298.9002991,
0.6341666579,297.9037781,
0.6358333826,297.5161743,
0.6374999881,299.0329285,
0.6391667128,298.5550232,
0.6408333182,299.323822,
0.6424999833,296.6994019,
0.644166708,299.7975159,
0.6458333135,299.8770142,
0.6475000381,299.0907898,
0.6491667032,300.4232788,
0.6508333087,300.364563,
0.6525000334,298.6343994,
0.6541666389,300.2097168,
0.6558333635,299.5666199,
0.6575000286,299.3053284,
0.6591666341,299.6528931,
0.6608333588,298.8834839,
0.6625000238,300.0986328,
0.6641666889,299.4062195,
0.665833354,300.6752319,
0.6674999595,298.6073914,
0.6691666842,300.1455688,
0.6708333492,300.1048279,
0.6725000143,300.7364807,
0.6741666794,298.0766907,
0.6758333445,298.3440247,
0.6775000095,297.9746399,
0.6791666746,298.982666,
0.6808333993,300.1396484,
0.6825000048,298.1351013,
0.6841666698,299.1935425,
0.6858333349,299.5153198,
0.6875,298.1919861,
0.6891667247,297.5411072,
0.6908333302,297.8661194,
0.6924999952,298.3120422,
0.6941667199,299.4695435,
0.6958333254,300.38797,
0.6975000501,298.9012756,
0.6991666555,299.3642273,
0.7008333206,299.3208313,
0.7025000453,298.126709,
0.7041666508,297.9841614,
0.7058333755,299.0956726,
0.7075000405,299.5480347,
0.709166646,299.0905151,
0.7108333707,299.5446777,
0.7124999762,297.2952271,
0.7141667008,299.6495972,
0.7158333659,299.3173523,
0.7174999714,299.9478149,
0.7191666961,299.4496765,
0.7208333611,296.9448853,
0.7225000262,299.4814453,
0.7241666913,298.5628357,
0.7258332968,298.7036133,
0.7275000215,296.9811707,
0.7291666865,297.8953247,
0.7308333516,298.3284912,
0.7325000167,299.3780823,
0.7341666818,298.5062866,
0.7358333468,293.8857727,
0.7375000119,298.9318542,
0.739166677,298.1947937,
0.7408333421,299.5551453,
0.7425000072,300.0961609,
0.7441666722,298.8039246,
0.7458333373,297.8240967,
0.747500062,296.8956604,
0.7491666675,299.7690125,
0.7508333325,298.3780518,
0.7524999976,298.2481995,
0.7541666627,296.4068298,
0.7558333874,297.5897522,
0.7574999928,298.3197937,
0.7591666579,299.716095,
0.7608333826,299.5446167,
0.7624999881,300.1345215,
0.7641667128,298.7427368,
0.7658333182,298.5201111,
0.7674999833,299.7281189,
0.769166708,298.8936462,
0.7708333135,298.6312561,
0.7725000381,297.5994873,
0.7741667032,298.4717712,
0.7758333087,299.0194702,
0.7775000334,297.6433105,
0.7791666389,297.811615,
0.7808333635,297.4838257,
0.7825000286,298.9254456,
0.7841666341,299.5892029,
0.7858333588,298.5940552,
0.7875000238,300.3346863,
0.7891666889,299.7158813,
0.790833354,297.3796692,
0.7924999595,297.7912292,
0.7941666842,301.1251221,
0.7958333492,299.2443848,
0.7975000143,298.7171326,
0.7991666794,298.4236145,
0.8008333445,298.5787659,
0.8025000095,299.5205078,
0.8041666746,297.1100769,
0.8058333993,298.289978,
0.8075000048,299.8794556,
0.8091666698,298.7521667,
0.8108333349,296.5192871,
0.8125,297.6974182,
0.8141667247,298.0257874,
0.8158333302,297.2851563,
0.8174999952,298.4309387,
0.8191667199,297.1371155,
0.8208333254,298.5929565,
0.8225000501,299.2620544,
0.8241666555,299.7644043,
0.8258333206,296.9802856,
0.8275000453,299.2028198,
0.8291666508,299.7294922,
0.8308333755,298.7848206,
0.8325000405,299.0124817,
0.834166646,296.8876038,
0.8358333707,298.9890747,
0.8374999762,297.3924561,
0.8391667008,297.2297363,
0.8408333659,298.3014832,
0.8424999714,297.5031433,
0.8441666961,298.1083069,
0.8458333611,297.1915588,
0.8475000262,298.0419312,
0.8491666913,298.7878113,
0.8508332968,298.2252197,
0.8525000215,298.6848145,
0.8541666865,301.0001221,
0.8558333516,299.2416992,
0.8575000167,299.5003357,
0.8591666818,299.2447205,
0.8608333468,298.987793,
0.8625000119,299.1421814,
0.864166677,298.7105103,
0.8658333421,298.7302246,
0.8675000072,299.0731201,
0.8691666722,297.5705566,
0.8708333373,298.6377869,
0.872500062,299.949646,
0.8741666675,298.9343872,
0.8758333325,298.8026733,
0.8774999976,299.3031006,
0.8791666627,298.7988281,
0.8808333874,297.7654114,
0.8824999928,297.6637268,
0.8841666579,297.0092468,
0.8858333826,299.8975525,
0.8874999881,299.1529846,
0.8891667128,298.5760193,
0.8908333182,300.177002,
0.8924999833,298.1597595,
0.894166708,300.1671753,
0.8958333135,298.1314087,
0.8975000381,298.9827576,
0.8991667032,297.4214783,
0.9008333087,298.7470398,
0.9025000334,299.9234314,
0.9041666389,297.3125916,
0.9058333635,299.028656,
0.9075000286,299.1104126,
0.9091666341,297.7197571,
0.9108333588,299.4784851,
0.9125000238,299.4053955,
0.9141666889,299.6009827,
0.915833354,297.7665405,
0.9174999595,299.0020752,
0.9191666842,299.5752869,
0.9208333492,298.5778809,
0.9225000143,299.9584961,
0.9241666794,299.7927246,
0.9258333445,298.2527771,
0.9275000095,299.2024231,
0.9291666746,296.061554,
0.9308333993,298.0762939,
0.9325000048,297.9619141,
0.9341666698,298.2160645,
0.9358333349,298.5525208,
0.9375,298.068634,
0.9391667247,298.9179077,
0.9408333302,298.4558105,
0.9424999952,296.7264709,
0.9441667199,298.0222473,
0.9458333254,298.8199463,
0.9475000501,298.6098633,
0.9491666555,299.4402466,
0.9508333206,298.5040588,
0.9525000453,298.6520996,
0.9541666508,299.4784851,
0.9558333755,299.3028259,
0.9575000405,297.9140625,
0.959166646,299.002655,
0.9608333707,298.8614502,
0.9624999762,299.2410583,
0.9641667008,297.7390747,
0.9658333659,298.1876831,
0.9674999714,298.3483276,
0.9691666961,297.3408203,
0.9708333611,300.586731,
0.9725000262,297.0377808,
0.9741666913,297.3429871,
0.9758332968,298.4904175,
0.9775000215,299.1256104,
0.9791666865,299.3670044,
0.9808333516,297.8453674,
0.9825000167,297.477356,
0.9841666818,300.8072815,
0.9858333468,298.1576538,
0.9875000119,299.2498779,
0.989166677,297.7496033,
0.9908333421,299.0054016,
0.9925000072,299.0577087,
0.9941666722,298.77005,
0.9958333373,297.5772095,
0.997500062,298.1205444,
0.9991666675,297.8105469,
1.000833273,298.5092468,
1.002500057,296.8278503,
1.004166722,299.0357056,
1.005833387,298.45755,
1.007500052,297.2619629,
1.009166598,298.5540771,
1.010833383,296.860199,
1.012500048,300.4129333,
1.014166713,298.0412292,
1.015833378,297.1423645,
1.017500043,299.9070435,
1.019166708,297.3616333,
1.020833373,298.8181152,
1.022500038,298.7465515,
1.024166703,296.5087585,
1.025833368,300.1350098,
1.027500033,252.3531647,
1.029166698,247.1963959,
1.030833364,248.773056,
1.032500029,280.6105042,
1.034166694,275.3007202,
1.035833359,272.586853,
1.037500024,265.1556702,
1.039166689,269.9404602,
1.040833354,268.7299805,
1.042500019,277.418335,
1.044166684,298.1888733,
1.045833349,292.90979,
1.047500014,293.2417297,
1.049166679,293.2965393,
1.050833344,293.5643921,
1.05250001,293.9804382,
1.054166675,293.6465759,
1.05583334,282.603302,
1.057500005,232.1161194,
1.05916667,272.2030029,
1.060833335,236.0017853,
1.0625,284.0281372,
1.064166665,270.0222473,
1.06583333,253.7494049,
1.067499995,291.8682251,
1.06916666,245.2100525,
1.070833325,263.9661865,
1.07249999,261.2756348,
1.074166775,248.4027863,
1.07583344,262.0098572,
1.077499986,273.6079102,
1.079166651,240.9130402,
1.080833316,261.4629517,
1.0825001,273.2922974,
1.084166765,246.4380188,
1.085833311,257.8131104,
1.087499976,267.8706055,
1.089166641,260.185791,
1.090833426,248.2004547,
1.092500091,276.2456055,
1.094166636,266.3181458,
1.095833302,232.0916443,
1.097499967,230.0602417,
1.099166751,237.4081116,
1.100833416,302.6530457,
1.102500081,302.9003296,
1.104166627,304.6730347,
1.105833292,303.2928772,
1.107500076,302.0837097,
1.109166741,302.6677856,
1.110833406,303.3900452,
1.112499952,306.2770386,
1.114166617,305.2996826,
1.115833402,305.4644775,
1.117500067,306.0585938,
1.119166732,306.3282166,
1.120833278,304.9160461,
1.122499943,304.9752808,
1.124166727,306.3018494,
1.125833392,306.370636,
1.127500057,307.4971619,
1.129166722,306.3019714,
1.130833268,308.3369446,
1.132500052,306.3375549,
1.134166718,306.9450684,
1.135833383,306.679718,
1.137500048,307.340271,
1.139166594,307.8230591,
1.140833378,309.4489136,
1.142500043,306.9833069,
1.144166708,307.9860229,
1.145833373,307.7812195,
1.147499919,309.460907,
1.149166703,309.4567566,
1.150833368,308.9655151,
1.152500033,310.1629639,
1.154166698,310.534668,
1.155833364,310.8969727,
1.157500029,310.8530579,
1.159166694,309.0586243,
1.160833359,309.8252563,
1.162500024,310.1579895,
1.164166689,309.5042419,
1.165833354,310.1454468,
1.167500019,310.9509277,
1.169166684,309.8303223,
1.170833349,310.9419861,
1.172500014,310.8519287,
1.174166799,313.2070313,
1.175833344,310.510437,
1.17750001,313.7501221,
1.179166675,309.4914856,
1.18083334,310.9203186,
1.182500124,311.676178,
1.18416667,311.9026489,
1.185833335,311.0686646,
1.1875,313.0704956,
1.189166665,313.4313049,
1.190833449,312.4955444,
1.192499995,310.5962219,
1.19416666,312.3020325,
1.195833325,311.808075,
1.19749999,314.4622803,
1.199166775,313.0302734,
1.20083344,311.4876099,
1.202499986,312.8719177,
1.204166651,314.0673218,
1.205833316,312.6319275,
1.2075001,314.1846924,
1.209166765,312.0325012,
1.210833311,311.9190674,
1.212499976,312.2654419,
1.214166641,313.041748,
1.215833426,313.6351013,
1.217500091,312.1272583,
1.219166636,312.985321,
1.220833302,314.3807373,
1.222499967,313.0697632,
1.224166751,311.5669861,
1.225833416,313.2184448,
1.227500081,314.9586792,
1.229166627,313.5027161,
1.230833292,312.8466797,
1.232500076,313.2383728,
1.234166741,313.4638367,
1.235833406,313.9692078,
1.237499952,313.7654114,
1.239166617,313.0351563,
1.240833402,315.3439941,
1.242500067,314.4825439,
1.244166732,313.1677856,
1.245833278,313.3103638,
1.247499943,314.4356995,
1.249166727,313.697937,
1.250833392,313.9565735,
1.252500057,314.1791687,
1.254166722,313.1605835,
1.255833268,314.6068115,
1.257500052,314.2235107,
1.259166718,315.9831848,
1.260833383,314.6722717,
1.262500048,313.299469,
1.264166594,314.68573,
1.265833378,315.4745178,
1.267500043,313.0906067,
1.269166708,314.1008606,
1.270833373,316.3713074,
1.272499919,316.3421326,
1.274166703,315.1828613,
1.275833368,315.5310974,
1.277500033,313.8803406,
1.279166698,315.7964783,
1.280833364,313.4763489,
1.282500029,315.4577637,
1.284166694,316.6187744,
1.285833359,315.6062317,
1.287500024,314.0082703,
1.289166689,314.5255127,
1.290833354,315.6446838,
1.292500019,315.5174561,
1.294166684,315.585022,
1.295833349,316.9842834,
1.297500014,317.3907776,
1.299166799,315.3871155,
1.300833344,315.3323059,
1.30250001,316.3796997,
1.304166675,317.4398804,
1.30583334,314.0283813,
1.307500124,319.5693359,
1.30916667,316.6871033,
1.310833335,316.1478271,
1.3125,316.7488708,
1.314166665,315.8867188,
1.315833449,317.5206604,
1.317499995,315.1942749,
1.31916666,316.1578369,
1.320833325,319.7461243,
1.32249999,318.3069458,
1.324166775,316.3985596,
1.32583344,316.9897766,
1.327499986,316.7685852,
1.329166651,320.214447,
1.330833316,316.1268311,
1.3325001,316.5509644,
1.334166765,318.0617676,
1.335833311,316.3297119,
1.337499976,317.0877686,
1.339166641,317.1485291,
1.340833426,318.4363098,
1.342500091,318.8980103,
1.344166636,316.8554077,
1.345833302,319.1754761,
1.347499967,316.4841003,
1.349166751,318.1202393,
1.350833416,316.868866,
1.352500081,318.7793274,
1.354166627,318.6227112,
1.355833292,318.2723083,
1.357500076,318.5508423,
1.359166741,318.711853,
1.360833406,320.263092,
1.362499952,320.3161316,
1.364166617,318.9289551,
1.365833402,319.9140625,
1.367500067,320.6790466,
1.369166732,318.7509766,
1.370833278,317.5627441,
1.372499943,319.0453186,
1.374166727,319.5578003,
1.375833392,319.034729,
1.377500057,319.6359863,
1.379166722,317.9273071,
1.380833268,317.9472656,
1.382500052,319.4015808,
1.384166718,319.8257751,
1.385833383,318.5779114,
1.387500048,319.4137878,
1.389166594,317.9302673,
1.390833378,319.4729919,
1.392500043,321.5364685,
1.394166708,318.5123596,
1.395833373,319.5445557,
1.397499919,320.0106812,
1.399166703,317.6746826,
1.400833368,318.7358093,
1.402500033,320.4119568,
1.404166698,319.8863831,
1.405833364,318.9506531,
1.407500029,320.1289978,
1.409166694,319.2453613,
1.410833359,319.5846558,
1.412500024,319.1436462,
1.414166689,321.3840332,
1.415833354,319.23172,
1.417500019,318.7640381,
1.419166684,319.4126587,
1.420833349,319.7302551,
1.422500014,319.9381714,
1.424166799,319.9681702,
1.425833344,321.6046143,
1.42750001,320.5929565,
1.429166675,321.0557861,
1.43083334,320.3268433,
1.432500124,319.7994385,
1.43416667,320.8509216,
1.435833335,321.1882019,
1.4375,319.5484924,
1.439166665,322.0169373,
1.440833449,321.42453,
1.442499995,321.0583496,
1.44416666,321.7958679,
1.445833325,321.2173462,
1.44749999,323.0452576,
1.449166775,321.5963745,
1.45083344,320.9916687,
1.452499986,320.0906067,
1.454166651,322.8452454,
1.455833316,321.4454346,
1.4575001,321.6359863,
1.459166765,320.7189636,
1.460833311,319.5437927,
1.462499976,322.5026245,
1.464166641,320.9782715,
1.465833426,322.6893005,
1.467500091,322.0158081,
1.469166636,320.8785706,
1.470833302,322.637146,
1.472499967,322.6598511,
1.474166751,323.1847229,
1.475833416,321.3747559,
1.477500081,321.3234558,
1.479166627,320.7324219,
1.480833292,320.3249207,
1.482500076,321.4581909,
1.484166741,322.3781433,
1.485833406,321.9365845,
1.487499952,319.9502258,
1.489166617,322.1548157,
1.490833402,320.5060425,
1.492500067,321.1109314,
1.494166732,322.4804382,
1.495833278,322.6116943,
1.497499943,322.6952515,
1.499166727,322.0116577,
1.500833392,321.3875427,
1.502500057,321.1555176,
1.504166722,322.2012939,
1.505833268,322.0550537,
1.507500052,321.9294434,
1.509166718,323.2662659,
1.510833383,321.8676147,
1.512500048,322.8643188,
1.514166594,322.1826477,
1.515833378,321.2619629,
1.517500043,321.1396179,
1.519166708,322.0913696,
1.520833373,321.3323669,
1.522499919,320.5892944,
1.524166703,323.3822937,
1.525833368,322.0755005,
1.527500033,321.3648682,
1.529166698,322.0013733,
1.530833364,321.7971802,
1.532500029,320.4449768,
1.534166694,321.3269958,
1.535833359,319.9974365,
1.537500024,322.4904175,
1.539166689,321.9844666,
1.540833354,322.1617126,
1.542500019,322.3543091,
1.544166684,324.1164551,
1.545833349,323.3022461,
1.547500014,322.9562378,
1.549166799,321.1444702,
1.550833344,321.9564819,
1.55250001,323.5505676,
1.554166675,325.2739868,
1.55583334,322.6452332,
1.557500124,321.481781,
1.55916667,323.0287781,
1.560833335,322.7432556,
1.5625,321.5255737,
1.564166665,321.2304993,
1.565833449,324.0274048,
1.567499995,322.1657104,
1.56916666,322.5365295,
1.570833325,323.9991455,
1.57249999,321.7844543,
1.574166775,323.1122131,
1.57583344,323.7862854,
1.577499986,321.2171021,
1.579166651,323.3023987,
1.580833316,322.9796143,
1.5825001,322.0446472,
1.584166765,321.9127808,
1.585833311,320.8773193,
1.587499976,322.9212036,
1.589166641,324.4067383,
1.590833426,324.3531799,
1.592500091,323.0316772,
1.594166636,322.1249084,
1.595833302,322.8748779,
1.597499967,323.0063782,
1.599166751,323.2246704,
1.600833416,324.1601868,
1.602500081,322.6950989,
1.604166627,322.2096863,
1.605833292,322.4534912,
1.607500076,321.1368408,
1.609166741,324.6042786,
1.610833406,322.4562378,
1.612499952,323.8967285,
1.614166617,324.7539368,
1.615833402,322.2594299,
1.617500067,323.7741089,
1.619166732,324.6309814,
1.620833278,322.9555664,
1.622499943,323.052887,
1.624166727,322.0604553,
1.625833392,325.1421814,
1.627500057,321.9947815,
1.629166722,324.2966614,
1.630833268,323.5403748,
1.632500052,322.914978,
1.634166718,324.4892883,
1.635833383,322.613678,
1.637500048,323.7065125,
1.639166594,324.5911865,
1.640833378,325.0147705,
1.642500043,323.1167603,
1.644166708,322.9620972,
1.645833373,325.8132324,
1.647499919,324.318573,
1.649166703,323.2220154,
1.650833368,321.8972778,
1.652500033,322.8364258,
1.654166698,323.1811523,
1.655833364,323.7886658,
1.657500029,323.945282,
1.659166694,324.3507385,
1.660833359,324.2607117,
1.662500024,321.6775208,
1.664166689,323.0032349,
1.665833354,326.5652466,
1.667500019,323.2464905,
1.669166684,319.571991,
1.670833349,324.7250061,
1.672500014,324.9620667,
1.674166799,321.8769836,
1.675833344,323.9785767,
1.67750001,324.0958862,
1.679166675,324.9226074,
1.68083334,323.4168091,
1.682500124,324.1945496,
1.68416667,322.9589844,
1.685833335,322.802124,
1.6875,323.1275635,
1.689166665,323.7532654,
1.690833449,322.0509644,
1.692499995,322.6706848,
1.69416666,323.6847229,
1.695833325,322.1790771,
1.69749999,323.6201172,
1.699166775,324.0529175,
1.70083344,323.2322083,
1.702499986,325.0983887,
1.704166651,324.3914795,
1.705833316,322.7156067,
1.7075001,322.5004578,
1.709166765,322.8136902,
1.710833311,322.5389709,
1.712499976,323.8679504,
1.714166641,323.8362427,
1.715833426,323.7630005,
1.717500091,322.3424377,
1.719166636,323.8410034,
1.720833302,323.9542847,
1.722499967,324.2250061,
1.724166751,323.9748535,
1.725833416,323.7698669,
1.727500081,322.3920898,
1.729166627,322.3366699,
1.730833292,323.0581665,
1.732500076,324.4955444,
1.734166741,324.2848511,
1.735833406,323.1132507,
1.737499952,321.9850464,
1.739166617,323.7019348,
1.740833402,322.9431458,
1.742500067,322.7803345,
1.744166732,324.635437,
1.745833278,324.4010925,
1.747499943,322.8412781,
1.749166727,323.1613159,
1.750833392,323.2915039,
1.752500057,324.9746399,
1.754166722,324.901123,
1.755833268,325.0274353,
1.757500052,322.9213867,
1.759166718,323.6296082,
1.760833383,325.1338806,
1.762500048,323.9112549,
1.764166594,323.0810852,
1.765833378,323.7527466,
1.767500043,324.2252502,
1.769166708,323.3492432,
1.770833373,325.3497009,
1.772499919,324.7590332,
1.774166703,322.8146667,
1.775833368,323.7019958,
1.777500033,322.6157532,
1.779166698,324.895752,
1.780833364,323.6811523,
1.782500029,325.2626038,
1.784166694,323.5807495,
1.785833359,323.9699707,
1.787500024,324.2323303,
1.789166689,325.4144287,
1.790833354,324.1697693,
1.792500019,323.5323792,
1.794166684,322.4228516,
1.795833349,324.617218,
1.797500014,323.32901,
1.799166799,323.0131531,
1.800833344,323.005188,
1.80250001,325.2398987,
1.804166675,323.7329712,
1.80583334,323.6810913,
1.807500124,323.4764099,
1.80916667,323.6567688,
1.810833335,324.3423767,
1.8125,323.7981873,
1.814166665,322.9565735,
1.815833449,323.5027466,
1.817499995,323.4463806,
1.81916666,324.6103821,
1.820833325,324.717926,
1.82249999,324.0820007,
1.824166775,324.0602417,
1.82583344,325.371521,
1.827499986,323.2236938,
1.829166651,325.885437,
1.830833316,324.6683655,
1.8325001,325.4151917,
1.834166765,324.3563843,
1.835833311,324.159729,
1.837499976,325.5987854,
1.839166641,325.4403992,
1.840833426,324.4683228,
1.842500091,327.0179138,
1.844166636,325.2839355,
1.845833302,325.9588928,
1.847499967,323.7853699,
1.849166751,324.5655212,
1.850833416,323.1822205,
1.852500081,322.6465454,
1.854166627,324.6217651,
1.855833292,324.6565857,
1.857500076,324.2095032,
1.859166741,324.7460022,
1.860833406,324.5647888,
1.862499952,325.3428345,
1.864166617,324.8145447,
1.865833402,323.8715515,
1.867500067,323.2990112,
1.869166732,324.0902405,
1.870833278,324.0971375,
1.872499943,323.7452698,
1.874166727,325.7456665,
1.875833392,324.2161865,
1.877500057,325.6320801,
1.879166722,323.2373352,
1.880833268,322.9287415,
1.882500052,324.8767395,
1.884166718,324.1034851,
1.885833383,324.4385071,
1.887500048,323.6035461,
1.889166594,324.9098816,
1.890833378,325.8100891,
1.892500043,324.8095703,
1.894166708,324.6378479,
1.895833373,325.8991089,
1.897499919,325.6849365,
1.899166703,323.9666443,
1.900833368,324.9369202,
1.902500033,324.4666138,
1.904166698,324.9271851,
1.905833364,326.2196655,
1.907500029,322.9116821,
1.909166694,324.6375122,
1.910833359,323.6331787,
1.912500024,325.6407776,
1.914166689,326.1041565,
1.915833354,325.3954468,
1.917500019,324.6621094,
1.919166684,325.8878479,
1.920833349,326.3360901,
1.922500014,325.7705383,
1.924166799,325.2659912,
1.925833344,325.0747375,
1.92750001,326.6310425,
1.929166675,324.0701599,
1.93083334,325.6397705,
1.932500124,325.6541443,
1.93416667,324.8009033,
1.935833335,325.4628906,
1.9375,325.4624023,
1.939166665,325.2973633,
1.940833449,324.5223083,
1.942499995,323.2068481,
1.94416666,325.6104126,
1.945833325,325.5585938,
1.94749999,325.7870178,
1.949166775,326.4795532,
1.95083344,327.7912598,
1.952499986,324.5374146,
1.954166651,324.7684326,
1.955833316,327.030426,
1.9575001,326.7972412,
1.959166765,325.208374,
1.960833311,324.2344055,
1.962499976,325.2136536,
1.964166641,323.675415,
1.965833426,324.2681274,
1.967500091,323.9963989,
1.969166636,325.6966248,
1.970833302,324.3041382,
1.972499967,323.5822144,
1.974166751,325.3651428,
1.975833416,325.5505676,
1.977500081,324.7169495,
1.979166627,324.1388855,
1.980833292,325.1952515,
1.982500076,325.7622986,
1.984166741,324.8449402,
1.985833406,324.3469849,
1.987499952,326.1427307,
1.989166617,323.9577942,
1.990833402,326.9322815,
1.992500067,324.1334229,
1.994166732,324.9949646,
1.995833278,325.5863647,
1.997499943,324.9874268,
1.999166727,326.7321472,
2.000833273,324.4591675,
2.002500057,325.2104492,
2.004166603,323.2161255,
2.005833387,326.5076294,
2.007500172,324.9267273,
2.009166718,322.7882996,
2.010833263,322.6830444,
2.012500048,326.126709,
2.014166594,323.5967102,
2.015833378,325.8541565,
2.017500162,325.5174866,
2.019166708,325.8176575,
2.020833254,324.276886,
2.022500038,325.4253235,
2.024166822,324.5119019,
2.025833368,325.941925,
2.027499914,326.131897,
2.029166698,324.1807861,
2.030833244,325.8518982,
2.032500029,326.2906494,
2.034166813,325.0022278,
2.035833359,325.6134949,
2.037499905,326.889679,
2.039166689,325.9232483,
2.040833473,325.1359863,
2.042500019,325.8217163,
2.044166803,323.9141846,
2.045833349,327.0045166,
2.047499895,323.7473755,
2.049166679,324.0365906,
2.050833464,325.2077026,
2.05250001,324.5646057,
2.054166555,325.5130615,
2.05583334,324.4455261,
2.057500124,326.6846313,
2.05916667,324.5605469,
2.060833454,326.5561218,
2.0625,325.2136536,
2.064166546,324.6443787,
2.06583333,323.8499146,
2.067500114,326.9539795,
2.06916666,323.7509766,
2.070833445,327.3317261,
2.07249999,325.8319702,
2.074166775,324.7415466,
2.075833321,324.1040344,
2.077500105,324.9107056,
2.079166651,325.7740173,
2.080833197,325.0660095,
2.082499981,322.6260376,
2.084166765,326.7843933,
2.085833311,324.8959961,
2.087500095,326.0375366,
2.089166641,326.3608398,
2.090833426,324.3014832,
2.092499971,325.3260803,
2.094166756,326.0252075,
2.095833302,325.7941895,
2.097500086,325.5883789,
2.099166632,326.0924377,
2.100833416,325.7931213,
2.102499962,327.2680359,
2.104166746,325.3130188,
2.105833292,324.2803955,
2.107500076,326.4223633,
2.109166622,324.56073,
2.110833406,325.4538574,
2.112499952,326.0054016,
2.114166737,326.1141357,
2.115833521,326.0837402,
2.117500067,324.3666382,
2.119166613,327.271637,
2.120833397,325.40802,
2.122499943,326.2530212,
2.124166727,327.1904602,
2.125833273,325.0274048,
2.127500057,327.5421143,
2.129166603,326.5813599,
2.130833387,325.6030884,
2.132500172,323.960907,
2.134166718,325.7801208,
2.135833502,324.2209167,
2.137500048,326.7134399,
2.139166832,324.9786072,
2.140833378,325.9245605,
2.142500162,325.4867249,
2.144166708,325.7010803,
2.145833254,324.3086853,
2.147500038,325.0593872,
2.149166584,326.6898499,
2.150833368,325.7442932,
2.152500153,326.1306152,
2.154166698,326.1463928,
2.155833483,324.4019165,
2.157500029,326.0809021,
2.159166813,327.5264893,
2.160833597,326.3345947,
2.162499905,324.6210632,
2.164166689,326.3394775,
2.165833235,326.3128357,
2.167500019,327.9095459,
2.169166803,327.5176086,
2.170833349,326.6065674,
2.172500134,326.2461853,
2.174166679,325.920929,
2.175833464,325.11203,
2.177500248,325.4415894,
2.179166555,324.9015198,
2.18083334,325.6208191,
2.182499886,325.8686218,
2.18416667,326.0586548,
2.185833454,326.2396545,
2.1875,327.0389709,
2.189166784,327.7173157,
2.19083333,326.0603333,
2.192500114,323.8982239,
2.194166899,325.8050232,
2.195833445,327.4495239,
2.19749999,325.7324219,
2.199166536,325.4223022,
2.200833321,325.0953979,
2.202500105,324.6469421,
2.204166651,326.6973267,
2.205833435,326.3262024,
2.207499981,325.632782,
2.209166765,325.2584534,
2.210833549,326.7902222,
2.212500095,326.6744385,
2.21416688,326.2430725,
2.215833187,325.5830383,
2.217499971,326.2541504,
2.219166756,325.3835449,
2.220833302,325.0839844,
2.222500086,325.4902039,
2.224166632,324.5738525,
2.225833416,324.8588257,
2.2275002,324.9602661,
2.229166746,326.0598755,
2.23083353,325.6549377,
2.232499838,325.4583435,
2.234166622,327.1056519,
2.235833406,325.4335938,
2.237499952,325.4757996,
2.239166737,326.5839539,
2.240833282,325.7946472,
2.242500067,325.6042786,
2.244166851,324.9336853,
2.245833397,325.3269043,
2.247500181,327.3679504,
2.249166727,325.5007324,
2.250833273,325.3886108,
2.252500057,326.7444458,
2.254166603,326.3903503,
2.255833387,326.5334167,
2.257499933,325.784729,
2.259166718,326.5620422,
2.260833502,326.7022705,
2.262500048,327.5727539,
2.264166832,324.6526794,
2.265833378,325.5879517,
2.267500162,326.3660278,
2.269166708,328.3064575,
2.270833254,325.8569946,
2.272500038,324.9305725,
2.274166584,325.8342896,
2.275833368,325.6069641,
2.277500153,326.2034912,
2.279166698,324.9212952,
2.280833483,327.2141113,
2.282500029,325.2520447,
2.284166813,325.946106,
2.285833597,326.8036194,
2.287499905,326.9233093,
2.289166689,325.4469604,
2.290833235,326.1498718,
2.292500019,326.8711243,
2.294166803,323.117218,
2.295833349,325.1905823,
2.297500134,325.6435242,
2.299166679,326.4303589,
2.300833464,324.9545898,
2.302500248,327.138031,
2.304166555,325.6170044,
2.30583334,326.2179871,
2.307499886,324.4239807,
2.30916667,326.0646362,
2.310833454,325.4125061,
2.3125,326.1047058,
2.314166784,326.867157,
2.31583333,325.7256775,
2.317500114,326.4042358,
2.319166899,327.7340088,
2.320833445,326.8180237,
2.32249999,326.4365845,
2.324166536,325.2390442,
2.325833321,325.2182312,
2.327500105,326.0575562,
2.329166651,326.1292114,
2.330833435,326.4624329,
2.332499981,326.342041,
2.334166765,325.5335693,
2.335833549,324.8959351,
2.337500095,324.9742126,
2.33916688,325.7119141,
2.340833187,326.236969,
2.342499971,327.7174683,
2.344166756,327.3891296,
2.345833302,326.9129333,
2.347500086,325.2428589,
2.349166632,327.5381775,
2.350833416,325.1134949,
2.3525002,324.1185303,
2.354166746,325.7406616,
2.35583353,327.837738,
2.357499838,326.1958618,
2.359166622,326.6575012,
2.360833406,326.5870361,
2.362499952,326.5332642,
2.364166737,326.261261,
2.365833282,324.6228638,
2.367500067,326.044281,
2.369166851,327.1474609,
2.370833397,327.0997009,
2.372500181,327.1802673,
2.374166727,325.2438965,
2.375833273,326.6182251,
2.377500057,326.9860229,
2.379166603,324.9273071,
2.380833387,326.3455505,
2.382499933,327.2600708,
2.384166718,328.2949524,
2.385833502,326.3340454,
2.387500048,326.4379578,
2.389166832,325.9725952,
2.390833378,327.2858276,
2.392500162,326.8453369,
2.394166708,325.8202515,
2.395833254,326.7817383,
2.397500038,326.6330261,
2.399166584,324.8139038,
2.400833368,325.5765076,
2.402500153,327.0652161,
2.404166698,326.8570557,
2.405833483,326.5530701,
2.407500029,327.65802,
2.409166813,324.8865356,
2.410833597,326.1836548,
2.412499905,325.3305054,
2.414166689,325.6243286,
2.415833235,326.6625061,
2.417500019,327.7802429,
2.419166803,325.125885,
2.420833349,326.9830933,
2.422500134,328.3443604,
2.424166679,329.0385742,
2.425833464,326.1141052,
2.427500248,324.4204712,
2.429166555,326.411499,
2.43083334,326.2743225,
2.432499886,325.4989624,
2.43416667,330.5610962,
2.435833454,324.7798767,
2.4375,326.0110168,
2.439166784,326.0007019,
2.44083333,324.8420105,
2.442500114,326.6909485,
2.444166899,326.8218079,
2.445833445,326.6937866,
2.44749999,328.6923218,
2.449166536,328.2588196,
2.450833321,325.1603394,
2.452500105,325.2826233,
2.454166651,326.9125061,
2.455833435,327.4848022,
2.457499981,327.5467834,
2.459166765,324.9967041,
2.460833549,328.4934998,
2.462500095,325.4373779,
2.46416688,324.9211121,
2.465833187,325.6621094,
2.467499971,325.1408386,
2.469166756,326.9243469,
2.470833302,326.0689392,
2.472500086,326.5661621,
2.474166632,326.6555481,
2.475833416,326.890625,
2.4775002,326.7182007,
2.479166746,324.0686646,
2.48083353,326.9294739,
2.482499838,325.5827637,
2.484166622,327.6118469,
2.485833406,326.3575745,
2.487499952,326.3077393,
2.489166737,324.7200928,
2.490833282,325.3019104,
2.492500067,324.0637817,
2.494166851,326.9711609,
2.495833397,326.0313721,
2.497500181,327.8675842,
2.499166727,326.2438354,
2.500833273,327.5522461,
2.502500057,328.5709229,
2.504166603,326.006012,
2.505833387,325.0397949,
2.507499933,324.523407,
2.509166718,325.0634155,
2.510833502,326.799408,
2.512500048,325.7946777,
2.514166832,326.5832214,
2.515833378,327.4827271,
2.517500162,325.749054,
2.519166708,324.8378601,
2.520833254,325.2015076,
2.522500038,326.3711243,
2.524166584,328.7384338,
2.525833368,326.4949646,
2.527500153,326.2266235,
2.529166698,325.2203674,
2.530833483,325.6924133,
2.532500029,326.7756653,
2.534166813,326.8447571,
2.535833597,327.9082642,
2.537499905,326.3833923,
2.539166689,325.4503174,
2.540833235,327.5107727,
2.542500019,325.8104248,
2.544166803,328.0201111,
2.545833349,327.6204224,
2.547500134,325.5733032,
2.549166679,326.124176,
2.550833464,325.7147827,
2.552500248,324.7954712,
2.554166555,326.503479,
2.55583334,324.2444153,
2.557499886,326.6411438,
2.55916667,327.1652527,
2.560833454,327.6542358,
2.5625,326.0122681,
2.564166784,327.465271,
2.56583333,326.8407593,
2.567500114,326.2304077,
2.569166899,328.0890808,
2.570833445,324.6466675,
2.57249999,325.5961609,
2.574166536,325.6026001,
2.575833321,326.4827881,
2.577500105,325.2109375,
2.579166651,326.908844,
2.580833435,327.209198,
2.582499981,325.8747559,
2.584166765,327.6104126,
2.585833549,326.6479492,
2.587500095,325.8197937,
2.58916688,327.5003052,
2.590833187,326.3092957,
2.592499971,326.4562378,
2.594166756,326.3429565,
2.595833302,327.9910583,
2.597500086,324.197998,
2.599166632,326.9718628,
2.600833416,327.2939148,
2.6025002,325.6290283,
2.604166746,325.9024963,
2.60583353,326.1818237,
2.607499838,326.6488342,
2.609166622,324.91745,
2.610833406,326.41922,
2.612499952,326.8031616,
2.614166737,326.6813049,
2.615833282,325.5131226,
2.617500067,324.6496277,
2.619166851,327.8017578,
2.620833397,326.0418701,
2.622500181,326.3540649,

