1,,
Time (min),Intensity (a.u.),
0.0008333333535,310.0068359,
0.002500000177,310.5629578,
0.004166666884,309.6013794,
0.005833333358,309.7817993,
0.007500000298,311.4951172,
0.009166667238,310.0971069,
0.01083333418,310.5323181,
0.01250000019,309.6091309,
0.01416666713,311.3040771,
0.01583333313,307.9562683,
0.01750000194,310.5925293,
0.01916666701,311.912384,
0.02083333395,309.4612427,
0.02250000089,310.1103821,
0.02416666783,309.0535278,
0.02583333477,309.8774109,
0.02749999985,309.9702148,
0.02916666679,310.2714844,
0.03083333373,310.227417,
0.03250000253,310.3186646,
0.03416666761,309.8086243,
0.03583333641,309.8289185,
0.03750000149,309.6130981,
0.03916667029,311.7170715,
0.04083333537,308.9518738,
0.04250000045,309.1098938,
0.04416666925,309.7520142,
0.04583333433,311.2514038,
0.04750000313,309.424408,
0.04916666821,310.2975769,
0.05083333328,309.265625,
0.05250000209,309.88974,
0.05416666716,311.866272,
0.05583333597,311.1947021,
0.05750000104,310.3170471,
0.05916666612,311.2554321,
0.06083333492,310.9944763,
0.0625,309.7145996,
0.06416667253,309.3876343,
0.0658333376,311.1236267,
0.06750000268,309.379425,
0.06916666776,310.2252808,
0.07083333284,309.9162903,
0.07249999791,308.9403076,
0.07416667044,310.374939,
0.07583333552,309.6981201,
0.0775000006,309.7882996,
0.07916666567,307.6583557,
0.08083333075,309.7207031,
0.08250000328,310.3778687,
0.08416666836,308.3909302,
0.08583333343,312.7521973,
0.08749999851,309.9727783,
0.08916666359,310.0209045,
0.09083333611,309.7930908,
0.09250000119,306.563324,
0.09416666627,310.1290894,
0.09583333135,309.8412476,
0.09749999642,309.5128784,
0.09916666895,310.3442078,
0.100833334,309.1486511,
0.1024999991,310.0870972,
0.1041666642,309.1781616,
0.1058333293,312.1083679,
0.1075000018,308.4518433,
0.1091666669,308.2319946,
0.1108333319,310.4439392,
0.112499997,308.3922119,
0.1141666621,308.8458557,
0.1158333346,308.7959595,
0.1174999997,307.537384,
0.1191666648,311.4050903,
0.1208333299,309.8218689,
0.1224999949,310.694458,
0.1241666749,309.7599487,
0.1258333325,310.8938293,
0.1274999976,310.3389587,
0.1291666627,309.3875732,
0.1308333278,309.6057129,
0.1325000077,311.0671692,
0.1341666728,310.3122559,
0.1358333379,309.369751,
0.137500003,308.0257263,
0.1391666681,308.7999878,
0.1408333331,310.1369629,
0.1424999982,308.8335876,
0.1441666782,307.8581238,
0.1458333284,308.8447876,
0.1475000083,307.9268799,
0.1491666585,307.8986206,
0.1508333385,309.2234497,
0.1525000036,310.4560852,
0.1541666687,310.1843872,
0.1558333337,308.7516479,
0.1574999988,309.1741028,
0.1591666639,309.5692444,
0.1608333439,310.3440247,
0.162499994,307.276123,
0.164166674,309.5899048,
0.1658333242,309.6654358,
0.1675000042,309.7397766,
0.1691666692,307.2748718,
0.1708333343,310.7601318,
0.1724999994,309.6478271,
0.1741666645,309.017395,
0.1758333296,309.0398254,
0.1775000095,308.2233276,
0.1791666597,309.1224976,
0.1808333397,309.7884216,
0.1824999899,307.3298645,
0.1841666698,308.8974304,
0.1858333498,309.4266357,
0.1875,308.3184204,
0.18916668,310.8175049,
0.1908333302,309.1424255,
0.1925000101,308.5974121,
0.1941666752,307.7513428,
0.1958333403,308.4743042,
0.1975000054,310.4346619,
0.1991666704,306.9567261,
0.2008333355,308.8447876,
0.2025000155,308.6646729,
0.2041666657,309.25,
0.2058333457,309.072052,
0.2074999958,308.5744324,
0.2091666758,310.1669312,
0.2108333409,308.2523499,
0.212500006,309.817688,
0.214166671,307.6035156,
0.2158333361,308.3590393,
0.2175000012,307.4429016,
0.2191666812,308.1410522,
0.2208333313,308.2825928,
0.2225000113,308.8478088,
0.2241666615,308.9043884,
0.2258333415,310.3381958,
0.2275000066,309.9086914,
0.2291666716,308.9050598,
0.2308333367,310.127594,
0.2325000018,309.2021179,
0.2341666669,309.4141541,
0.2358333468,309.3848572,
0.237499997,310.5690918,
0.239166677,308.8267517,
0.2408333272,310.1706848,
0.2425000072,308.0052795,
0.2441666722,309.8066711,
0.2458333373,308.3650208,
0.2475000024,308.7073364,
0.2491666675,308.3625488,
0.2508333325,306.8282776,
0.2524999976,307.3616028,
0.2541666627,309.1088562,
0.2558333278,307.6145935,
0.2574999928,309.5166931,
0.2591666579,308.4422302,
0.2608333528,308.9288635,
0.2624999881,308.8661499,
0.264166683,310.1452332,
0.2658333182,308.9207458,
0.2675000131,308.7871094,
0.2691666484,308.0617065,
0.2708333433,307.7241516,
0.2725000083,309.4108582,
0.2741666734,307.9482727,
0.2758333385,307.4880981,
0.2775000036,308.5863953,
0.2791666687,306.6991272,
0.2808333337,307.8733521,
0.2824999988,309.0546875,
0.2841666937,310.460022,
0.285833329,311.0579224,
0.287499994,308.9121094,
0.2891666591,309.5612183,
0.290833354,309.2579346,
0.2925000191,309.1817627,
0.2941666543,308.5281067,
0.2958333194,308.4576416,
0.2975000143,308.73526,
0.2991666794,309.4008789,
0.3008333445,308.3412781,
0.3024999797,307.113739,
0.3041666746,307.625946,
0.3058333397,306.2815857,
0.3075000048,308.9130249,
0.3091666996,310.7084045,
0.3108333349,308.1760864,
0.3125,308.0408325,
0.3141666651,309.2637329,
0.31583336,306.7151794,
0.317500025,307.2513733,
0.3191666603,309.4464722,
0.3208333254,308.722168,
0.3225000203,309.0267944,
0.3241666853,308.8776855,
0.3258333504,309.1342773,
0.3274999857,308.6840515,
0.3291666806,309.209259,
0.3308333457,310.8735657,
0.3325000107,308.8906555,
0.3341666758,307.6331177,
0.3358333409,308.960907,
0.337500006,307.5284424,
0.339166671,310.6177673,
0.3408333361,308.6621704,
0.342500031,309.8078308,
0.3441666663,310.7817383,
0.3458333313,308.1615601,
0.3474999964,308.1402283,
0.3491666913,308.9709778,
0.3508333564,307.7904053,
0.3524999917,309.2990417,
0.3541666567,309.2767944,
0.3558333516,309.1044617,
0.3575000167,309.2685547,
0.3591666818,309.6530151,
0.360833317,309.6809082,
0.3625000119,308.4821167,
0.364166677,307.5666199,
0.3658333421,310.9021301,
0.3675000072,307.620697,
0.3691666722,308.0034485,
0.3708333373,311.0870361,
0.3725000024,307.8841248,
0.3741666675,307.6665344,
0.3758333623,309.6019287,
0.3774999976,308.599884,
0.3791666627,308.751709,
0.3808333278,308.3099365,
0.3825000226,308.5414124,
0.3841666877,306.9111328,
0.385833323,308.5556335,
0.3874999881,307.0212097,
0.389166683,307.9144287,
0.390833348,308.9624023,
0.3925000131,307.3829041,
0.3941666484,308.7825928,
0.3958333433,309.6988525,
0.3975000083,306.3552246,
0.3991666734,309.3118286,
0.4008333385,307.6127319,
0.4025000036,309.4078674,
0.4041666687,307.9924622,
0.4058333337,307.632019,
0.4074999988,308.6562195,
0.4091666937,307.1177673,
0.410833329,308.0663452,
0.412499994,307.7070007,
0.4141666591,309.8476257,
0.415833354,308.5956726,
0.4175000191,307.9628601,
0.4191666543,309.1260376,
0.4208333194,308.0462036,
0.4225000143,309.0979309,
0.4241666794,308.4700012,
0.4258333445,305.3297729,
0.4274999797,309.0055237,
0.4291666746,308.7610779,
0.4308333397,308.2962646,
0.4325000048,308.6263123,
0.4341666996,309.581604,
0.4358333349,307.7948608,
0.4375,308.4996338,
0.4391666651,308.6653442,
0.44083336,307.0202026,
0.442500025,308.8908691,
0.4441666603,308.6925659,
0.4458333254,306.3321533,
0.4475000203,306.3326111,
0.4491666853,309.2319336,
0.4508333504,307.2354126,
0.4524999857,308.8937378,
0.4541666806,309.4342651,
0.4558333457,308.5641479,
0.4575000107,306.8901367,
0.4591666758,309.0405273,
0.4608333409,307.9187317,
0.462500006,307.9452209,
0.464166671,308.4662476,
0.4658333361,307.2470093,
0.467500031,307.5450134,
0.4691666663,308.7904053,
0.4708333313,308.4457092,
0.4724999964,309.4376526,
0.4741666913,308.2043457,
0.4758333564,309.3283386,
0.4774999917,308.0664063,
0.4791666567,308.5353394,
0.4808333516,308.2155151,
0.4825000167,307.0943604,
0.4841666818,308.7430115,
0.485833317,306.8564148,
0.4875000119,308.8727722,
0.489166677,308.4339294,
0.4908333421,310.2197571,
0.4925000072,308.1577759,
0.4941666722,308.4055786,
0.4958333373,309.188385,
0.4975000024,309.0678101,
0.4991666675,308.2445068,
0.5008333325,308.5635376,
0.5024999976,308.1319275,
0.5041666627,307.7858276,
0.5058333278,308.6891479,
0.5074999928,307.901001,
0.5091666579,308.7634277,
0.510833323,309.0314026,
0.5124999881,309.4065857,
0.5141666532,307.2131042,
0.5158333182,309.3959351,
0.5175000429,307.2870178,
0.5191666484,308.6236572,
0.5208333135,308.1836853,
0.5224999785,307.5619507,
0.5241667032,307.3703613,
0.5258333683,307.9100342,
0.5274999738,307.0227356,
0.5291666389,309.7338257,
0.5308333635,308.7949219,
0.5325000286,308.0757141,
0.5341666341,305.9583435,
0.5358333588,306.6846313,
0.5375000238,307.7473755,
0.5391666889,308.2149963,
0.540833354,308.9453125,
0.5424999595,308.6609802,
0.5441666842,307.1792908,
0.5458333492,308.7085876,
0.5475000143,307.9378052,
0.5491666794,308.0007324,
0.5508333445,308.1455994,
0.5525000095,307.1827087,
0.5541666746,308.4855042,
0.5558333993,308.6950073,
0.5575000048,309.9742737,
0.5591666698,308.4230957,
0.5608333349,306.1512451,
0.5625,308.4604187,
0.5641667247,307.5882568,
0.5658333302,308.1077576,
0.5674999952,307.7541199,
0.5691667199,309.0037231,
0.5708333254,307.5621033,
0.5725000501,309.2205811,
0.5741666555,307.8822937,
0.5758333206,309.7225952,
0.5775000453,307.937439,
0.5791666508,308.155426,
0.5808333755,307.5335083,
0.5825000405,308.8083191,
0.584166646,308.8705139,
0.5858333707,309.0288696,
0.5874999762,308.5311584,
0.5891667008,307.4146423,
0.5908333659,309.454895,
0.5924999714,307.2575378,
0.5941666961,306.4910278,
0.5958333611,308.082489,
0.5975000262,308.7024536,
0.5991666913,308.6184082,
0.6008332968,308.5781555,
0.6025000215,306.091217,
0.6041666865,309.1002502,
0.6058333516,307.4167786,
0.6075000167,306.8579712,
0.6091666818,307.4385986,
0.6108333468,307.4744873,
0.6125000119,308.2049561,
0.614166677,309.1594238,
0.6158333421,308.2359924,
0.6175000072,307.5571594,
0.6191666722,308.0213013,
0.6208333373,308.394989,
0.622500062,307.281311,
0.6241666675,308.8186035,
0.6258333325,307.9039612,
0.6274999976,310.1521301,
0.6291666627,308.2514648,
0.6308333874,306.5776367,
0.6324999928,306.7277222,
0.6341666579,308.0346375,
0.6358333826,306.8762207,
0.6374999881,307.34552,
0.6391667128,305.5633545,
0.6408333182,307.9335327,
0.6424999833,308.6762695,
0.644166708,307.8358765,
0.6458333135,306.7399597,
0.6475000381,309.2269287,
0.6491667032,307.9319458,
0.6508333087,308.8260803,
0.6525000334,309.8368835,
0.6541666389,309.4012451,
0.6558333635,307.3773804,
0.6575000286,306.6069031,
0.6591666341,308.8420105,
0.6608333588,309.4173584,
0.6625000238,305.0576172,
0.6641666889,308.51474,
0.665833354,305.5222778,
0.6674999595,307.3953247,
0.6691666842,308.9474182,
0.6708333492,308.0448608,
0.6725000143,308.3223877,
0.6741666794,308.734314,
0.6758333445,307.2779236,
0.6775000095,307.8891907,
0.6791666746,306.0159302,
0.6808333993,306.9454651,
0.6825000048,308.2833862,
0.6841666698,306.1408081,
0.6858333349,308.3457031,
0.6875,305.3621216,
0.6891667247,307.2548828,
0.6908333302,307.3036804,
0.6924999952,308.7486877,
0.6941667199,308.2334595,
0.6958333254,307.0050659,
0.6975000501,309.1129761,
0.6991666555,309.4129639,
0.7008333206,307.6963806,
0.7025000453,308.1118469,
0.7041666508,307.2203369,
0.7058333755,307.4556885,
0.7075000405,308.6052856,
0.709166646,306.1972656,
0.7108333707,306.2355347,
0.7124999762,306.8275146,
0.7141667008,307.8088989,
0.7158333659,307.5178833,
0.7174999714,306.9590454,
0.7191666961,309.620575,
0.7208333611,308.7270508,
0.7225000262,306.7355347,
0.7241666913,307.15979,
0.7258332968,307.7229919,
0.7275000215,307.4635925,
0.7291666865,307.413147,
0.7308333516,309.4750977,
0.7325000167,308.2784119,
0.7341666818,308.0019836,
0.7358333468,307.2200623,
0.7375000119,306.8007813,
0.739166677,308.3023987,
0.7408333421,306.6114502,
0.7425000072,305.3952637,
0.7441666722,306.9488525,
0.7458333373,306.4012146,
0.747500062,308.5074158,
0.7491666675,308.3938293,
0.7508333325,306.8061523,
0.7524999976,307.3050232,
0.7541666627,306.0140991,
0.7558333874,309.1080627,
0.7574999928,307.5576782,
0.7591666579,307.6011658,
0.7608333826,307.2079468,
0.7624999881,308.5274963,
0.7641667128,305.9184265,
0.7658333182,307.9000854,
0.7674999833,307.7879333,
0.769166708,308.0502014,
0.7708333135,308.7055664,
0.7725000381,307.4413452,
0.7741667032,305.0019226,
0.7758333087,308.3180847,
0.7775000334,306.5415039,
0.7791666389,307.9604492,
0.7808333635,307.6697693,
0.7825000286,307.1346741,
0.7841666341,307.9512634,
0.7858333588,310.0022278,
0.7875000238,307.699646,
0.7891666889,304.7342224,
0.790833354,309.0125122,
0.7924999595,305.9996643,
0.7941666842,308.0919189,
0.7958333492,307.0627747,
0.7975000143,307.8292847,
0.7991666794,307.8751831,
0.8008333445,307.5927734,
0.8025000095,307.8655396,
0.8041666746,306.5586853,
0.8058333993,307.5704041,
0.8075000048,307.2651367,
0.8091666698,308.2741394,
0.8108333349,306.0661316,
0.8125,307.5679016,
0.8141667247,309.798645,
0.8158333302,309.6309509,
0.8174999952,307.2845459,
0.8191667199,308.5976257,
0.8208333254,308.4983521,
0.8225000501,307.8008728,
0.8241666555,307.3720398,
0.8258333206,307.4499817,
0.8275000453,307.5547485,
0.8291666508,307.4963989,
0.8308333755,308.3298035,
0.8325000405,306.5176392,
0.834166646,310.1274414,
0.8358333707,309.4797058,
0.8374999762,306.903656,
0.8391667008,307.5242004,
0.8408333659,309.1560364,
0.8424999714,308.2602234,
0.8441666961,308.5063477,
0.8458333611,307.3821411,
0.8475000262,307.2563782,
0.8491666913,306.3117981,
0.8508332968,309.6573181,
0.8525000215,307.3476257,
0.8541666865,306.7907104,
0.8558333516,306.7450562,
0.8575000167,308.0161438,
0.8591666818,307.5019531,
0.8608333468,307.7141113,
0.8625000119,309.3590393,
0.864166677,306.7212219,
0.8658333421,307.7769165,
0.8675000072,307.3418579,
0.8691666722,307.8335876,
0.8708333373,306.7618713,
0.872500062,308.122467,
0.8741666675,306.2083435,
0.8758333325,306.8773804,
0.8774999976,309.8395386,
0.8791666627,308.5077209,
0.8808333874,306.5756531,
0.8824999928,308.2153015,
0.8841666579,306.756012,
0.8858333826,309.2186584,
0.8874999881,307.460144,
0.8891667128,307.0054932,
0.8908333182,306.7071533,
0.8924999833,306.2714233,
0.894166708,307.4454346,
0.8958333135,307.1084595,
0.8975000381,306.6170349,
0.8991667032,307.4899902,
0.9008333087,306.7623901,
0.9025000334,307.9971008,
0.9041666389,305.495575,
0.9058333635,306.8551636,
0.9075000286,306.5640259,
0.9091666341,307.4185486,
0.9108333588,306.8835449,
0.9125000238,308.3375854,
0.9141666889,304.9637146,
0.915833354,307.9732666,
0.9174999595,307.0231018,
0.9191666842,306.3631897,
0.9208333492,307.771698,
0.9225000143,306.5048828,
0.9241666794,307.6786194,
0.9258333445,306.9321594,
0.9275000095,308.581543,
0.9291666746,306.9248047,
0.9308333993,306.9207153,
0.9325000048,308.4177551,
0.9341666698,306.6134949,
0.9358333349,308.3660278,
0.9375,307.0361938,
0.9391667247,307.4979248,
0.9408333302,307.714386,
0.9424999952,308.4981995,
0.9441667199,307.2124023,
0.9458333254,307.7615967,
0.9475000501,308.5012512,
0.9491666555,307.3453369,
0.9508333206,309.4681702,
0.9525000453,308.5884705,
0.9541666508,307.8066406,
0.9558333755,308.4750061,
0.9575000405,305.9291382,
0.959166646,307.9077148,
0.9608333707,307.1366577,
0.9624999762,306.9515381,
0.9641667008,307.8877869,
0.9658333659,307.0890198,
0.9674999714,306.8931885,
0.9691666961,307.4329529,
0.9708333611,307.6041565,
0.9725000262,307.9676819,
0.9741666913,306.8958435,
0.9758332968,307.6481934,
0.9775000215,308.2961731,
0.9791666865,308.2008667,
0.9808333516,307.5446167,
0.9825000167,306.9542847,
0.9841666818,306.1106262,
0.9858333468,306.6683044,
0.9875000119,306.9960327,
0.989166677,307.5415344,
0.9908333421,308.2352905,
0.9925000072,308.6572571,
0.9941666722,306.5170288,
0.9958333373,306.8519287,
0.997500062,305.5805969,
0.9991666675,307.4806519,
1.000833273,307.0743408,
1.002500057,306.1336975,
1.004166722,308.8078308,
1.005833387,307.9049072,
1.007500052,307.4281921,
1.009166598,307.3468628,
1.010833383,307.0673523,
1.012500048,307.0169678,
1.014166713,306.4292297,
1.015833378,306.0205688,
1.017500043,307.5393677,
1.019166708,307.690918,
1.020833373,305.9886169,
1.022500038,306.6764526,
1.024166703,308.6184692,
1.025833368,307.2881775,
1.027500033,306.4710388,
1.029166698,306.7999573,
1.030833364,308.3659668,
1.032500029,297.2175598,
1.034166694,265.0175781,
1.035833359,258.2926941,
1.037500024,250.1028748,
1.039166689,242.4200439,
1.040833354,242.5633087,
1.042500019,240.9538879,
1.044166684,286.2957458,
1.045833349,296.175293,
1.047500014,295.5427246,
1.049166679,294.3338623,
1.050833344,294.0379333,
1.05250001,293.7303467,
1.054166675,294.723999,
1.05583334,295.8691101,
1.057500005,295.0055847,
1.05916667,295.735321,
1.060833335,253.2833862,
1.0625,298.3137817,
1.064166665,281.7765198,
1.06583333,301.2637634,
1.067499995,261.5946655,
1.06916666,279.8333435,
1.070833325,283.7690125,
1.07249999,273.2502747,
1.074166775,298.1676636,
1.07583344,275.566925,
1.077499986,261.1282654,
1.079166651,291.4409485,
1.080833316,280.361084,
1.0825001,304.8130493,
1.084166765,290.0969238,
1.085833311,283.4783936,
1.087499976,298.1893616,
1.089166641,257.5609741,
1.090833426,296.2518005,
1.092500091,251.6177368,
1.094166636,298.3933716,
1.095833302,273.8453979,
1.097499967,287.5070496,
1.099166751,282.1884155,
1.100833416,263.0783386,
1.102500081,300.112854,
1.104166627,271.637085,
1.105833292,307.6946716,
1.107500076,265.0275269,
1.109166741,313.0930176,
1.110833406,317.2266846,
1.112499952,316.9045715,
1.114166617,317.6192932,
1.115833402,316.4216614,
1.117500067,316.9780884,
1.119166732,317.412262,
1.120833278,318.602478,
1.122499943,317.9882813,
1.124166727,317.260376,
1.125833392,318.9300232,
1.127500057,318.4718323,
1.129166722,317.3986206,
1.130833268,319.1868286,
1.132500052,319.363739,
1.134166718,319.9178162,
1.135833383,319.5445557,
1.137500048,319.9371948,
1.139166594,322.7070007,
1.140833378,320.4068604,
1.142500043,320.5856628,
1.144166708,320.8119202,
1.145833373,320.9725647,
1.147499919,321.024353,
1.149166703,321.6538086,
1.150833368,320.2666321,
1.152500033,321.6665039,
1.154166698,322.2267761,
1.155833364,321.6428223,
1.157500029,322.6645203,
1.159166694,320.9692078,
1.160833359,323.5241089,
1.162500024,321.5545959,
1.164166689,321.2113342,
1.165833354,323.2732239,
1.167500019,324.876709,
1.169166684,324.087677,
1.170833349,322.8124695,
1.172500014,324.8144531,
1.174166799,322.0411682,
1.175833344,324.8656006,
1.17750001,324.7528992,
1.179166675,322.7262573,
1.18083334,324.5708923,
1.182500124,324.5855713,
1.18416667,323.5231628,
1.185833335,324.822113,
1.1875,325.6530762,
1.189166665,326.8232117,
1.190833449,326.000885,
1.192499995,325.4153748,
1.19416666,323.1436462,
1.195833325,325.9977112,
1.19749999,323.4373779,
1.199166775,326.4820557,
1.20083344,324.29776,
1.202499986,326.6459351,
1.204166651,325.7047119,
1.205833316,326.0968933,
1.2075001,326.7295227,
1.209166765,326.9455872,
1.210833311,325.827179,
1.212499976,326.9525452,
1.214166641,324.9908142,
1.215833426,329.1669617,
1.217500091,326.3511658,
1.219166636,329.1990356,
1.220833302,328.2784729,
1.222499967,329.2486877,
1.224166751,329.5909424,
1.225833416,327.4954224,
1.227500081,328.6973572,
1.229166627,328.624176,
1.230833292,330.2649536,
1.232500076,328.9382324,
1.234166741,328.1306458,
1.235833406,328.9199829,
1.237499952,329.3287964,
1.239166617,330.4260559,
1.240833402,327.092926,
1.242500067,328.4016724,
1.244166732,328.0219727,
1.245833278,328.5698853,
1.247499943,329.8012695,
1.249166727,328.480896,
1.250833392,328.0180664,
1.252500057,330.2554932,
1.254166722,330.9529724,
1.255833268,330.550354,
1.257500052,330.4219666,
1.259166718,332.3965149,
1.260833383,331.6340027,
1.262500048,328.1051025,
1.264166594,329.7086792,
1.265833378,329.9985962,
1.267500043,329.4268494,
1.269166708,331.2339783,
1.270833373,331.6071472,
1.272499919,329.7019348,
1.274166703,329.8842468,
1.275833368,330.1442261,
1.277500033,330.414978,
1.279166698,331.3450928,
1.280833364,331.0891113,
1.282500029,332.3940735,
1.284166694,329.4020691,
1.285833359,331.8671875,
1.287500024,331.4034424,
1.289166689,329.379364,
1.290833354,330.9882202,
1.292500019,331.6995544,
1.294166684,329.5780945,
1.295833349,332.0558777,
1.297500014,331.663208,
1.299166799,329.3711853,
1.300833344,329.967804,
1.30250001,330.9514771,
1.304166675,332.0830383,
1.30583334,331.1362,
1.307500124,330.6506042,
1.30916667,332.0039368,
1.310833335,333.6732788,
1.3125,331.644104,
1.314166665,332.543335,
1.315833449,332.7489319,
1.317499995,332.2763672,
1.31916666,331.1641235,
1.320833325,333.0317383,
1.32249999,332.3392334,
1.324166775,330.8295593,
1.32583344,329.9212952,
1.327499986,332.1958313,
1.329166651,333.438385,
1.330833316,331.2850647,
1.3325001,330.477478,
1.334166765,332.3482971,
1.335833311,332.6979065,
1.337499976,334.54599,
1.339166641,332.7171021,
1.340833426,332.0576477,
1.342500091,333.68396,
1.344166636,334.493103,
1.345833302,333.0166931,
1.347499967,332.9991455,
1.349166751,333.2502136,
1.350833416,332.2696533,
1.352500081,332.6304016,
1.354166627,332.5692444,
1.355833292,334.5538635,
1.357500076,333.664856,
1.359166741,333.1080933,
1.360833406,332.8297119,
1.362499952,333.0243835,
1.364166617,334.3507385,
1.365833402,332.7320251,
1.367500067,335.1557007,
1.369166732,332.0967407,
1.370833278,333.4924316,
1.372499943,334.7319031,
1.374166727,334.1541138,
1.375833392,332.2513123,
1.377500057,334.2122498,
1.379166722,333.3588257,
1.380833268,334.0925293,
1.382500052,333.8978882,
1.384166718,335.8417053,
1.385833383,334.7642517,
1.387500048,333.244873,
1.389166594,334.1921997,
1.390833378,331.7924194,
1.392500043,333.4182739,
1.394166708,331.805481,
1.395833373,332.6555481,
1.397499919,333.5111084,
1.399166703,333.7493591,
1.400833368,331.5421143,
1.402500033,335.2731018,
1.404166698,333.393219,
1.405833364,334.8350525,
1.407500029,333.5921326,
1.409166694,334.1788025,
1.410833359,333.0312195,
1.412500024,333.5817261,
1.414166689,333.3552856,
1.415833354,334.3043213,
1.417500019,334.3748779,
1.419166684,334.6380005,
1.420833349,333.3830566,
1.422500014,335.100708,
1.424166799,333.0257568,
1.425833344,335.6293945,
1.42750001,333.95578,
1.429166675,335.782959,
1.43083334,335.3687744,
1.432500124,336.0814209,
1.43416667,333.0923767,
1.435833335,333.7918396,
1.4375,333.3135986,
1.439166665,335.0915833,
1.440833449,333.6929016,
1.442499995,336.3430176,
1.44416666,333.2072144,
1.445833325,335.131958,
1.44749999,333.6506653,
1.449166775,334.3016357,
1.45083344,335.9188538,
1.452499986,334.9657288,
1.454166651,335.7466736,
1.455833316,333.9569397,
1.4575001,333.8924561,
1.459166765,335.6807861,
1.460833311,333.9703369,
1.462499976,335.5399475,
1.464166641,334.3144836,
1.465833426,335.8096619,
1.467500091,335.7346802,
1.469166636,335.8232422,
1.470833302,336.8479614,
1.472499967,334.7732849,
1.474166751,337.5093689,
1.475833416,334.7258301,
1.477500081,335.0493164,
1.479166627,335.0610657,
1.480833292,332.9662476,
1.482500076,333.3452454,
1.484166741,335.5399475,
1.485833406,335.0452271,
1.487499952,334.4377747,
1.489166617,334.6417542,
1.490833402,334.1524353,
1.492500067,334.2056274,
1.494166732,335.8868103,
1.495833278,336.414093,
1.497499943,335.3334351,
1.499166727,336.3891907,
1.500833392,334.3221741,
1.502500057,338.0352478,
1.504166722,338.0697327,
1.505833268,334.817749,
1.507500052,335.004364,
1.509166718,336.2951965,
1.510833383,335.2762756,
1.512500048,336.3648682,
1.514166594,335.2018127,
1.515833378,335.3947449,
1.517500043,337.0819702,
1.519166708,335.3724365,
1.520833373,336.8136902,
1.522499919,335.1618958,
1.524166703,335.6433105,
1.525833368,335.5791016,
1.527500033,334.6247864,
1.529166698,336.1719666,
1.530833364,335.8071289,
1.532500029,336.2975769,
1.534166694,334.0414429,
1.535833359,335.4367065,
1.537500024,334.9687195,
1.539166689,336.2828674,
1.540833354,335.9537659,
1.542500019,334.5097961,
1.544166684,337.1403809,
1.545833349,339.1416321,
1.547500014,336.5924988,
1.549166799,336.3399353,
1.550833344,334.9451904,
1.55250001,334.3405457,
1.554166675,335.9245605,
1.55583334,337.6505432,
1.557500124,337.8793945,
1.55916667,336.0976563,
1.560833335,336.1498413,
1.5625,336.2410278,
1.564166665,336.6095276,
1.565833449,337.23703,
1.567499995,338.3024597,
1.56916666,337.7373962,
1.570833325,336.8596497,
1.57249999,336.5855408,
1.574166775,337.450592,
1.57583344,336.4815063,
1.577499986,337.2398682,
1.579166651,335.239502,
1.580833316,335.5896912,
1.5825001,336.0354614,
1.584166765,336.5689087,
1.585833311,337.5335083,
1.587499976,336.5747986,
1.589166641,336.7350159,
1.590833426,335.2088013,
1.592500091,336.100708,
1.594166636,335.4445801,
1.595833302,336.8752441,
1.597499967,337.5742493,
1.599166751,335.0941467,
1.600833416,336.3641663,
1.602500081,337.094635,
1.604166627,334.3446655,
1.605833292,338.1957092,
1.607500076,336.3994446,
1.609166741,335.866272,
1.610833406,338.4161987,
1.612499952,336.6146851,
1.614166617,337.077179,
1.615833402,336.9028015,
1.617500067,335.8517151,
1.619166732,338.1461487,
1.620833278,336.9216309,
1.622499943,337.0586548,
1.624166727,338.4971008,
1.625833392,336.783844,
1.627500057,335.7234192,
1.629166722,337.1029968,
1.630833268,337.3015442,
1.632500052,336.5470581,
1.634166718,335.9458313,
1.635833383,335.9221802,
1.637500048,337.3010864,
1.639166594,338.1576843,
1.640833378,336.1361084,
1.642500043,338.7459717,
1.644166708,338.3677368,
1.645833373,336.8443298,
1.647499919,336.5931702,
1.649166703,338.3964233,
1.650833368,337.6955872,
1.652500033,335.5588074,
1.654166698,339.2832031,
1.655833364,336.8018799,
1.657500029,339.0419312,
1.659166694,336.4584961,
1.660833359,335.9393311,
1.662500024,338.6356506,
1.664166689,333.8360901,
1.665833354,338.7535095,
1.667500019,336.7478943,
1.669166684,336.1963196,
1.670833349,337.5701904,
1.672500014,337.2514038,
1.674166799,337.6087646,
1.675833344,336.9587708,
1.67750001,339.189209,
1.679166675,337.196228,
1.68083334,337.8197632,
1.682500124,336.3342896,
1.68416667,337.0822449,
1.685833335,339.2738342,
1.6875,338.3036804,
1.689166665,336.7814941,
1.690833449,334.6899414,
1.692499995,336.5444031,
1.69416666,336.8670654,
1.695833325,337.9567261,
1.69749999,337.3259888,
1.699166775,338.6350708,
1.70083344,336.2871399,
1.702499986,338.1524963,
1.704166651,338.7092896,
1.705833316,336.1453247,
1.7075001,338.098999,
1.709166765,336.7546692,
1.710833311,337.9995422,
1.712499976,338.1603699,
1.714166641,340.0243225,
1.715833426,338.0152893,
1.717500091,338.7686462,
1.719166636,338.4672241,
1.720833302,338.0805054,
1.722499967,338.3001709,
1.724166751,336.9222717,
1.725833416,337.1013489,
1.727500081,337.9428711,
1.729166627,339.4427795,
1.730833292,337.4864197,
1.732500076,335.5375366,
1.734166741,338.1238708,
1.735833406,336.2746582,
1.737499952,338.0460815,
1.739166617,337.6047668,
1.740833402,339.3303223,
1.742500067,338.5505371,
1.744166732,337.2196045,
1.745833278,337.644989,
1.747499943,336.4039917,
1.749166727,339.1902161,
1.750833392,338.6871338,
1.752500057,339.4941711,
1.754166722,339.2315674,
1.755833268,337.8150024,
1.757500052,339.3728027,
1.759166718,336.455658,
1.760833383,338.3908691,
1.762500048,338.683197,
1.764166594,339.0873108,
1.765833378,337.3592224,
1.767500043,340.8869629,
1.769166708,337.6814575,
1.770833373,339.4232178,
1.772499919,339.3341675,
1.774166703,337.5372925,
1.775833368,336.5030212,
1.777500033,336.8838196,
1.779166698,337.7507324,
1.780833364,337.8214722,
1.782500029,337.7996216,
1.784166694,337.9118958,
1.785833359,338.6132813,
1.787500024,338.7151489,
1.789166689,339.9423828,
1.790833354,339.2459106,
1.792500019,337.6842041,
1.794166684,336.9371643,
1.795833349,340.4431458,
1.797500014,337.2321167,
1.799166799,340.645752,
1.800833344,338.3993225,
1.80250001,336.9740906,
1.804166675,339.8760681,
1.80583334,339.1983643,
1.807500124,337.1250305,
1.80916667,339.7931213,
1.810833335,338.4083862,
1.8125,338.1259155,
1.814166665,338.0504456,
1.815833449,338.6923218,
1.817499995,339.7997437,
1.81916666,338.8347778,
1.820833325,337.1526184,
1.82249999,339.5496826,
1.824166775,337.586731,
1.82583344,338.9015198,
1.827499986,336.0089111,
1.829166651,339.4367065,
1.830833316,337.6169434,
1.8325001,338.0015869,
1.834166765,339.9855042,
1.835833311,338.4534302,
1.837499976,339.0054932,
1.839166641,338.3451233,
1.840833426,338.7792664,
1.842500091,338.5209961,
1.844166636,339.8875122,
1.845833302,339.2844543,
1.847499967,340.107666,
1.849166751,338.8552246,
1.850833416,338.0931702,
1.852500081,338.4620056,
1.854166627,339.0150146,
1.855833292,339.5745239,
1.857500076,340.1715088,
1.859166741,336.8853149,
1.860833406,338.0095215,
1.862499952,339.9980774,
1.864166617,340.4366455,
1.865833402,338.0588379,
1.867500067,337.8417053,
1.869166732,338.6764221,
1.870833278,338.8111267,
1.872499943,338.9121704,
1.874166727,337.588623,
1.875833392,338.6358337,
1.877500057,338.5188599,
1.879166722,339.8066711,
1.880833268,338.3503113,
1.882500052,340.2195129,
1.884166718,337.3930359,
1.885833383,337.0880432,
1.887500048,339.0006104,
1.889166594,340.5212097,
1.890833378,337.4568787,
1.892500043,339.9797058,
1.894166708,336.9666138,
1.895833373,339.4957581,
1.897499919,338.9394836,
1.899166703,341.3951721,
1.900833368,340.2644043,
1.902500033,338.9950256,
1.904166698,340.2219849,
1.905833364,339.6500854,
1.907500029,338.1707458,
1.909166694,339.3426208,
1.910833359,338.5183716,
1.912500024,341.0427246,
1.914166689,341.4797058,
1.915833354,338.4232788,
1.917500019,340.065979,
1.919166684,340.0529785,
1.920833349,338.7199097,
1.922500014,339.4250488,
1.924166799,339.2265015,
1.925833344,339.5792236,
1.92750001,337.3661194,
1.929166675,341.4469604,
1.93083334,341.0487976,
1.932500124,338.6984863,
1.93416667,338.5792542,
1.935833335,338.0009766,
1.9375,338.0753479,
1.939166665,339.0567932,
1.940833449,339.3306885,
1.942499995,340.0292969,
1.94416666,339.0291138,
1.945833325,339.3951416,
1.94749999,338.4654236,
1.949166775,341.0404663,
1.95083344,338.318512,
1.952499986,338.9563904,
1.954166651,338.2255859,
1.955833316,338.0256958,
1.9575001,336.4423523,
1.959166765,337.5769653,
1.960833311,337.9883423,
1.962499976,338.2824402,
1.964166641,339.4910278,
1.965833426,337.4592285,
1.967500091,339.6147766,
1.969166636,338.8320923,
1.970833302,338.3834534,
1.972499967,339.0953369,
1.974166751,339.1437073,
1.975833416,339.4223633,
1.977500081,339.5512695,
1.979166627,339.5695801,
1.980833292,338.894989,
1.982500076,337.1992188,
1.984166741,340.1501465,
1.985833406,339.7909546,
1.987499952,339.2390442,
1.989166617,337.8537598,
1.990833402,339.8686218,
1.992500067,337.8654175,
1.994166732,338.1225891,
1.995833278,337.0211487,
1.997499943,338.9907532,
1.999166727,337.7857971,
2.000833273,340.2510681,
2.002500057,338.280426,
2.004166603,338.0600891,
2.005833387,338.6043091,
2.007500172,339.0490723,
2.009166718,339.4551697,
2.010833263,339.7984924,
2.012500048,337.9776917,
2.014166594,340.2964172,
2.015833378,339.1681213,
2.017500162,338.8635254,
2.019166708,337.4457092,
2.020833254,338.1244507,
2.022500038,339.7783508,
2.024166822,340.2992249,
2.025833368,338.1566467,
2.027499914,339.3874207,
2.029166698,338.4338074,
2.030833244,340.8539429,
2.032500029,338.3256836,
2.034166813,339.7616882,
2.035833359,337.9579773,
2.037499905,338.7911377,
2.039166689,338.9729614,
2.040833473,339.8708496,
2.042500019,340.607605,
2.044166803,338.5552673,
2.045833349,340.5093994,
2.047499895,338.5660095,
2.049166679,341.8005066,
2.050833464,339.4246216,
2.05250001,339.1925049,
2.054166555,338.608429,
2.05583334,338.541748,
2.057500124,337.9989929,
2.05916667,339.5157776,
2.060833454,339.6790771,
2.0625,340.5136108,
2.064166546,338.6105042,
2.06583333,338.4679871,
2.067500114,336.9530945,
2.06916666,336.9602051,
2.070833445,339.3785095,
2.07249999,340.635376,
2.074166775,337.5341492,
2.075833321,339.3643799,
2.077500105,338.5830078,
2.079166651,340.5482483,
2.080833197,340.1696472,
2.082499981,339.0464783,
2.084166765,339.2078247,
2.085833311,338.7394104,
2.087500095,339.1036377,
2.089166641,340.624115,
2.090833426,339.1223755,
2.092499971,337.8669434,
2.094166756,338.849762,
2.095833302,338.2244263,
2.097500086,339.1424866,
2.099166632,339.218689,
2.100833416,339.9325562,
2.102499962,338.3988647,
2.104166746,338.2290344,
2.105833292,338.4441528,
2.107500076,338.7141724,
2.109166622,340.287323,
2.110833406,340.6975708,
2.112499952,339.152832,
2.114166737,340.2939758,
2.115833521,338.3074036,
2.117500067,338.3548584,
2.119166613,340.7504578,
2.120833397,339.616272,
2.122499943,339.1525574,
2.124166727,338.9322205,
2.125833273,339.6503296,
2.127500057,339.4828796,
2.129166603,339.8189697,
2.130833387,339.1231384,
2.132500172,338.2522278,
2.134166718,338.8320313,
2.135833502,336.3745117,
2.137500048,338.8988953,
2.139166832,339.418396,
2.140833378,336.8866577,
2.142500162,336.3389282,
2.144166708,339.0386963,
2.145833254,341.0513306,
2.147500038,339.6012268,
2.149166584,340.4153137,
2.150833368,338.7858582,
2.152500153,338.3372803,
2.154166698,337.3163757,
2.155833483,340.7529602,
2.157500029,338.7554626,
2.159166813,338.2134705,
2.160833597,337.8100281,
2.162499905,338.8780518,
2.164166689,339.6669312,
2.165833235,340.4389038,
2.167500019,338.7719116,
2.169166803,339.3200378,
2.170833349,338.5823059,
2.172500134,339.7427063,
2.174166679,338.175293,
2.175833464,339.7024536,
2.177500248,339.7900391,
2.179166555,340.2574768,
2.18083334,339.4269104,
2.182499886,338.543335,
2.18416667,339.7738953,
2.185833454,337.9957275,
2.1875,337.4006653,
2.189166784,339.4781189,
2.19083333,338.1734619,
2.192500114,339.6147461,
2.194166899,339.5001526,
2.195833445,338.5091248,
2.19749999,340.9466858,
2.199166536,340.4339294,
2.200833321,339.0779114,
2.202500105,338.0018921,
2.204166651,341.1412659,
2.205833435,340.3346252,
2.207499981,339.7386169,
2.209166765,337.0315247,
2.210833549,339.0848389,
2.212500095,339.2513733,
2.21416688,339.6278687,
2.215833187,339.5334167,
2.217499971,338.8562622,
2.219166756,339.1134033,
2.220833302,339.5142517,
2.222500086,338.3711853,
2.224166632,339.8476868,
2.225833416,339.99823,
2.2275002,338.1125183,
2.229166746,339.4466858,
2.23083353,339.6908875,
2.232499838,339.6914673,
2.234166622,338.3407288,
2.235833406,340.099762,
2.237499952,341.3475037,
2.239166737,338.8787231,
2.240833282,339.2693481,
2.242500067,337.7868958,
2.244166851,339.7565002,
2.245833397,339.2382507,
2.247500181,339.8359375,
2.249166727,338.4194031,
2.250833273,339.4432983,
2.252500057,338.4693909,
2.254166603,340.6630554,
2.255833387,339.8521423,
2.257499933,339.157959,
2.259166718,337.5195007,
2.260833502,340.6230774,
2.262500048,340.1996765,
2.264166832,340.1679077,
2.265833378,341.192749,
2.267500162,339.9177246,
2.269166708,338.8750305,
2.270833254,340.6556396,
2.272500038,340.3782959,
2.274166584,341.2406006,
2.275833368,340.5601501,
2.277500153,341.5377502,
2.279166698,338.7713623,
2.280833483,338.9569397,
2.282500029,340.8789673,
2.284166813,340.2342224,
2.285833597,338.2686462,
2.287499905,341.8541565,
2.289166689,338.9483337,
2.290833235,338.6012878,
2.292500019,338.4998474,
2.294166803,339.9456177,
2.295833349,339.9975586,
2.297500134,339.6575928,
2.299166679,340.8410645,
2.300833464,337.983551,
2.302500248,337.9101257,
2.304166555,338.6988525,
2.30583334,336.9304199,
2.307499886,339.2783813,
2.30916667,339.3525085,
2.310833454,340.5171204,
2.3125,339.1790161,
2.314166784,340.4482117,
2.31583333,341.0238342,
2.317500114,345.5540161,
2.319166899,340.5594482,
2.320833445,340.4439392,
2.32249999,339.9349365,
2.324166536,339.493103,
2.325833321,340.6075439,
2.327500105,340.3991394,
2.329166651,340.4511108,
2.330833435,340.6567078,
2.332499981,340.505127,
2.334166765,341.6591492,
2.335833549,340.3174438,
2.337500095,338.7304382,
2.33916688,340.4599609,
2.340833187,340.3921814,
2.342499971,340.082489,
2.344166756,339.6141357,
2.345833302,340.9230347,
2.347500086,338.845459,
2.349166632,340.9170532,
2.350833416,338.7179871,
2.3525002,340.2810059,
2.354166746,340.0050659,
2.35583353,338.821106,
2.357499838,340.7523499,
2.359166622,340.8429565,
2.360833406,338.0832825,
2.362499952,338.2736511,
2.364166737,340.318573,
2.365833282,340.3841858,
2.367500067,339.963562,
2.369166851,338.713501,
2.370833397,339.3003235,
2.372500181,340.1292725,
2.374166727,338.6994019,
2.375833273,341.1611633,
2.377500057,337.1692505,
2.379166603,339.6116028,
2.380833387,339.499054,
2.382499933,338.9749451,
2.384166718,340.0906067,
2.385833502,337.418335,
2.387500048,340.8184204,
2.389166832,338.0169067,
2.390833378,339.7193909,
2.392500162,339.5309143,
2.394166708,339.3909302,
2.395833254,340.1322327,
2.397500038,339.23703,
2.399166584,340.0343628,
2.400833368,340.2838745,
2.402500153,339.8824768,
2.404166698,339.9468079,
2.405833483,341.433197,
2.407500029,340.5501099,
2.409166813,340.984375,
2.410833597,339.9627991,
2.412499905,338.9574585,
2.414166689,338.9194641,
2.415833235,340.7245483,
2.417500019,339.9254456,
2.419166803,339.5581055,
2.420833349,340.9112244,
2.422500134,339.918335,
2.424166679,340.0206299,
2.425833464,340.7102051,
2.427500248,339.6726074,
2.429166555,341.390625,
2.43083334,340.7384949,
2.432499886,339.171051,
2.43416667,340.3222351,
2.435833454,340.4926453,
2.4375,340.88797,
2.439166784,339.3283386,
2.44083333,343.3583069,
2.442500114,339.9319763,
2.444166899,339.5474854,
2.445833445,341.4491577,
2.44749999,341.0022583,
2.449166536,339.7608643,
2.450833321,340.1440735,
2.452500105,341.0908508,
2.454166651,340.7015686,
2.455833435,340.7189026,
2.457499981,339.5215454,
2.459166765,339.9770813,
2.460833549,341.5716248,
2.462500095,340.6693115,
2.46416688,340.6135254,
2.465833187,339.355896,
2.467499971,340.7843933,
2.469166756,340.2419434,
2.470833302,340.6516113,
2.472500086,340.5213623,
2.474166632,340.2194214,
2.475833416,340.3911133,
2.4775002,342.0518799,
2.479166746,340.7097473,
2.48083353,340.4943237,
2.482499838,341.2185059,
2.484166622,339.5353394,
2.485833406,340.0015564,
2.487499952,340.3441162,
2.489166737,339.2594604,
2.490833282,340.5997925,
2.492500067,339.9214783,
2.494166851,340.9838867,
2.495833397,339.2741394,
2.497500181,339.480011,
2.499166727,339.9561768,
2.500833273,341.0637512,
2.502500057,341.1234741,
2.504166603,339.7333984,
2.505833387,339.8218689,
2.507499933,339.4408264,
2.509166718,341.5429688,
2.510833502,341.3130188,
2.512500048,342.0499573,
2.514166832,338.8856506,
2.515833378,340.7676697,
2.517500162,340.5289917,
2.519166708,339.6376343,
2.520833254,339.831543,
2.522500038,339.8937683,
2.524166584,342.624176,
2.525833368,339.1374207,
2.527500153,340.1997986,
2.529166698,341.3841858,
2.530833483,340.7009277,
2.532500029,338.3721924,
2.534166813,341.0257568,
2.535833597,340.5853577,
2.537499905,341.0169067,
2.539166689,339.826355,
2.540833235,341.1498718,
2.542500019,340.262085,
2.544166803,339.3671875,
2.545833349,339.6103516,
2.547500134,341.7573853,
2.549166679,340.2838135,
2.550833464,340.5472717,
2.552500248,339.7606812,
2.554166555,339.4724426,
2.55583334,338.9151001,
2.557499886,339.1277161,
2.55916667,338.1885681,
2.560833454,340.8860474,
2.5625,337.9810181,
2.564166784,339.1848145,
2.56583333,341.5259705,
2.567500114,341.3015442,
2.569166899,341.1242981,
2.570833445,342.969574,
2.57249999,340.7830811,
2.574166536,341.0099487,
2.575833321,341.7108459,
2.577500105,341.1149902,
2.579166651,340.0385132,
2.580833435,341.1397705,
2.582499981,339.7048035,
2.584166765,339.4239502,
2.585833549,340.6588135,
2.587500095,342.2984314,
2.58916688,341.1398621,
2.590833187,338.7563782,
2.592499971,340.9629211,
2.594166756,341.6572266,
2.595833302,341.5908813,
2.597500086,340.8323669,
2.599166632,341.2987366,
2.600833416,340.1852417,
2.6025002,340.0705872,
2.604166746,339.5574951,
2.60583353,340.3010864,
2.607499838,339.1822815,
2.609166622,339.0139771,
2.610833406,339.9153137,
2.612499952,338.9360352,
2.614166737,338.3911133,
2.615833282,342.7268066,
2.617500067,339.7436218,
2.619166851,342.2582092,
2.620833397,341.3634644,
2.622500181,339.5550842,
2.624166727,341.5968628,
2.625833273,342.7855225,
2.627500057,341.169281,
2.629166603,341.5892944,
2.630833387,340.5995178,
2.632499933,341.0829773,
2.634166718,339.9895935,
2.635833502,338.5145264,
2.637500048,341.8486328,
2.639166832,340.6019897,
2.640833378,339.45755,
2.642500162,341.3894958,
2.644166708,341.5814514,
2.645833254,339.1867676,
2.647500038,340.9985657,
2.649166584,338.8713379,
2.650833368,338.9346008,
2.652500153,339.0234375,
2.654166698,339.0232239,
2.655833483,340.2076416,
2.657500029,341.1105652,
2.659166813,341.9514465,
2.660833597,341.150238,
2.662499905,339.6166687,
2.664166689,338.8020935,
2.665833235,342.0942688,
2.667500019,340.3634949,
2.669166803,341.8022156,
2.670833349,341.2067261,
2.672500134,341.7669983,
2.674166679,341.58078,
2.675833464,339.4263306,
2.677500248,340.4274292,
2.679166555,339.3404236,
2.68083334,339.9922485,
2.682499886,340.8141174,
2.68416667,338.3629456,
2.685833454,340.1045837,
2.6875,341.3883972,
2.689166784,339.8462219,
2.69083333,340.2832031,
2.692500114,338.4586487,
2.694166899,339.4198608,
2.695833445,339.3408203,
2.69749999,339.6323853,
2.699166536,340.4770813,
2.700833321,340.2081299,
2.702500105,339.7573547,
2.704166651,340.862915,
2.705833435,341.4326782,
2.707499981,342.3739319,
2.709166765,339.8460388,
2.710833549,340.1374512,
2.712500095,342.1559448,
2.71416688,340.2298584,
2.715833187,341.1902771,
2.717499971,341.3533936,
2.719166756,341.931366,
2.720833302,338.1255493,
2.722500086,339.5399475,
2.724166632,339.8357544,
2.725833416,341.9386292,
2.7275002,340.3648376,
2.729166746,339.9610596,
2.73083353,340.1040344,
2.732499838,340.9805603,
2.734166622,338.2761841,
2.735833406,340.7484741,
2.737499952,339.9803772,
2.739166737,341.7612915,
2.740833282,341.7585754,
2.742500067,337.9735413,
2.744166851,340.4421692,
2.745833397,340.5541687,
2.747500181,340.0322571,
2.749166727,338.723114,
2.750833273,342.6700134,
2.752500057,340.1549988,
2.754166603,341.6510315,
2.755833387,341.2999268,
2.757499933,342.3373718,
2.759166718,339.5220642,
2.760833502,341.4767151,
2.762500048,339.0386047,
2.764166832,340.5994263,
2.765833378,340.8556213,
2.767500162,339.6612549,
2.769166708,341.1846313,
2.770833254,343.8518982,
2.772500038,340.559021,
2.774166584,341.2432556,
2.775833368,341.7452698,
2.777500153,339.0137024,
2.779166698,341.2400513,
2.780833483,342.1621399,
2.782500029,341.0873718,
2.784166813,341.8752747,
2.785833597,340.2610474,
2.787499905,341.3857422,
2.789166689,342.4421692,
2.790833235,341.0888977,
2.792500019,341.1332092,
2.794166803,341.2273254,
2.795833349,340.1826172,
2.797500134,340.9046326,
2.799166679,339.7999878,
2.800833464,341.8815918,
2.802500248,339.118866,
2.804166555,341.4771423,
2.80583334,341.2198181,
2.807499886,340.026123,
2.80916667,339.5009766,
2.810833454,340.3580933,
2.8125,342.1373901,
2.814166784,341.3054199,
2.81583333,340.7488098,
2.817500114,339.1804504,
2.819166899,339.3605652,
2.820833445,340.4179382,
2.82249999,340.4977722,
2.824166536,339.6044006,
2.825833321,339.8575745,
2.827500105,340.971344,
2.829166651,339.2084045,
2.830833435,340.1968384,
2.832499981,340.420105,
2.834166765,338.4285583,
2.835833549,341.3009338,
2.837500095,339.7712097,
2.83916688,339.133606,
2.840833187,340.5518799,
2.842499971,341.2266846,
2.844166756,341.9416199,
2.845833302,340.4832153,
2.847500086,340.9886475,
2.849166632,339.3550415,
2.850833416,340.0083313,
2.8525002,339.5200806,
2.854166746,340.2885437,
2.85583353,342.7270203,
2.857499838,340.005188,
2.859166622,340.2030945,
2.860833406,339.8231201,
2.862499952,339.8764343,
2.864166737,338.6543274,
2.865833282,339.0241089,
2.867500067,339.2488708,
2.869166851,339.3015747,
2.870833397,341.1219177,
2.872500181,340.2861633,
2.874166727,341.0688171,
2.875833273,340.0731506,
2.877500057,341.6577148,
2.879166603,340.886322,
2.880833387,340.9061279,
2.882499933,341.7879028,
2.884166718,339.6204529,
2.885833502,339.3025818,
2.887500048,340.806366,
2.889166832,340.2215881,
2.890833378,341.66745,
2.892500162,339.61026,
2.894166708,339.8277283,
2.895833254,342.6987305,
2.897500038,339.8098755,
2.899166584,340.803009,
2.900833368,339.8079529,
2.902500153,340.2285461,
2.904166698,340.663269,
2.905833483,340.3327942,
2.907500029,340.9519043,
2.909166813,340.5352783,
2.910833597,340.9579163,
2.912499905,339.7119141,
2.914166689,341.4553833,
2.915833235,340.9056091,
2.917500019,341.6580811,
2.919166803,341.0940552,
2.920833349,340.672699,
2.922500134,339.552002,
2.924166679,340.4040527,
2.925833464,340.3858643,
2.927500248,340.4008789,
2.929166555,340.5766602,
2.93083334,341.7148438,
2.932499886,341.7859192,
2.93416667,339.9689331,
2.935833454,339.520752,
2.9375,339.4022827,
2.939166784,342.7822266,
2.94083333,343.8914795,
2.942500114,342.5329285,
2.944166899,339.6096497,
2.945833445,341.6575928,
2.94749999,340.897583,
2.949166536,341.1423035,
2.950833321,340.8675232,
2.952500105,339.3780518,
2.954166651,339.2095337,
2.955833435,340.2904358,
2.957499981,342.2331543,
2.959166765,340.9079895,
2.960833549,341.6973267,
2.962500095,339.1813354,
2.96416688,340.3282166,
2.965833187,338.8445435,
2.967499971,342.7930298,
2.969166756,342.0085754,
2.970833302,341.0387878,
2.972500086,340.8473206,
2.974166632,342.6003113,
2.975833416,340.9055481,
2.9775002,340.5825806,
2.979166746,339.6390686,
2.98083353,343.65448,
2.982499838,339.7423401,
2.984166622,338.9342041,
2.985833406,338.6581421,
2.987499952,341.1508789,
2.989166737,339.9567566,
2.990833282,340.5718994,
2.992500067,339.8388367,
2.994166851,341.22229,
2.995833397,340.8243408,
2.997500181,341.1372375,
2.999166727,341.134613,
3.000833273,340.5255737,
3.002500057,342.9393005,
3.004166603,341.0982361,
3.005833387,339.1065369,
3.007499933,341.2797852,
3.009166718,339.6949463,
3.010833502,339.9573364,
3.012500048,340.7760925,
3.014166832,341.706604,
3.015833378,340.1150208,

