1,,
Time (min),Intensity (a.u.),
0.0008333333535,298.4047852,
0.002500000177,298.3867188,
0.004166666884,299.5102844,
0.005833333358,299.6784058,
0.007500000298,300.1220398,
0.009166667238,299.7163086,
0.01083333418,296.6606445,
0.01250000019,299.1853638,
0.01416666713,298.4588623,
0.01583333313,298.2147827,
0.01750000194,298.1548462,
0.01916666701,300.3310852,
0.02083333395,300.030365,
0.02250000089,299.3085938,
0.02416666783,298.1688232,
0.02583333477,298.0643311,
0.02749999985,298.7597961,
0.02916666679,299.1025391,
0.03083333373,297.9448853,
0.03250000253,300.2739868,
0.03416666761,299.6088562,
0.03583333641,300.5838928,
0.03750000149,299.4815063,
0.03916667029,298.9654846,
0.04083333537,298.7492065,
0.04250000045,300.9587097,
0.04416666925,299.5415955,
0.04583333433,298.655426,
0.04750000313,298.6599426,
0.04916666821,299.7626953,
0.05083333328,299.6522217,
0.05250000209,300.2038269,
0.05416666716,300.4418335,
0.05583333597,299.4804993,
0.05750000104,298.4856262,
0.05916666612,298.5416565,
0.06083333492,300.8554993,
0.0625,299.9527588,
0.06416667253,299.8057861,
0.0658333376,300.3511047,
0.06750000268,299.2344971,
0.06916666776,300.6651001,
0.07083333284,301.1987,
0.07249999791,296.9695129,
0.07416667044,299.9653625,
0.07583333552,299.9994202,
0.0775000006,301.4705811,
0.07916666567,300.6210327,
0.08083333075,301.0834656,
0.08250000328,299.5173645,
0.08416666836,298.757843,
0.08583333343,297.5304871,
0.08749999851,297.9042664,
0.08916666359,299.4565125,
0.09083333611,299.5872498,
0.09250000119,298.9892883,
0.09416666627,300.0647278,
0.09583333135,298.6902161,
0.09749999642,299.3380127,
0.09916666895,299.5395508,
0.100833334,297.9060669,
0.1024999991,297.9312134,
0.1041666642,299.0237427,
0.1058333293,299.667511,
0.1075000018,299.2614441,
0.1091666669,299.9570313,
0.1108333319,298.8794556,
0.112499997,298.9517822,
0.1141666621,298.9716492,
0.1158333346,299.1514893,
0.1174999997,299.006134,
0.1191666648,297.708252,
0.1208333299,299.3720703,
0.1224999949,297.5845032,
0.1241666749,299.6811829,
0.1258333325,298.4248047,
0.1274999976,298.5172424,
0.1291666627,299.3063965,
0.1308333278,299.3782959,
0.1325000077,300.9165039,
0.1341666728,299.7715759,
0.1358333379,297.2757568,
0.137500003,298.6793213,
0.1391666681,298.3198547,
0.1408333331,300.0011902,
0.1424999982,299.4673767,
0.1441666782,298.8734436,
0.1458333284,299.3433838,
0.1475000083,299.177002,
0.1491666585,298.329834,
0.1508333385,297.8372192,
0.1525000036,301.8280334,
0.1541666687,298.6489258,
0.1558333337,301.2714844,
0.1574999988,301.3063965,
0.1591666639,300.2615356,
0.1608333439,298.0191956,
0.162499994,303.2279053,
0.164166674,299.6938477,
0.1658333242,298.828186,
0.1675000042,299.6146851,
0.1691666692,298.5951233,
0.1708333343,299.5772095,
0.1724999994,299.6770935,
0.1741666645,299.6104431,
0.1758333296,300.6367188,
0.1775000095,299.5631409,
0.1791666597,298.7760925,
0.1808333397,299.7009583,
0.1824999899,301.2718201,
0.1841666698,300.5740662,
0.1858333498,300.8249817,
0.1875,300.8978882,
0.18916668,301.5455933,
0.1908333302,299.7170105,
0.1925000101,301.2514343,
0.1941666752,301.7373352,
0.1958333403,298.9591675,
0.1975000054,299.7671814,
0.1991666704,300.0577087,
0.2008333355,299.0737915,
0.2025000155,298.602356,
0.2041666657,300.9664612,
0.2058333457,299.6477356,
0.2074999958,299.0584717,
0.2091666758,300.2897339,
0.2108333409,299.6003723,
0.212500006,299.5845642,
0.214166671,299.0696411,
0.2158333361,302.1552734,
0.2175000012,297.6640015,
0.2191666812,300.0480957,
0.2208333313,299.0690613,
0.2225000113,297.962616,
0.2241666615,299.2863159,
0.2258333415,298.1369934,
0.2275000066,299.0772095,
0.2291666716,297.8657837,
0.2308333367,298.309906,
0.2325000018,298.3902283,
0.2341666669,298.4624939,
0.2358333468,297.7515259,
0.237499997,298.8135681,
0.239166677,299.0007629,
0.2408333272,299.0643921,
0.2425000072,297.6095886,
0.2441666722,299.008728,
0.2458333373,299.0634155,
0.2475000024,299.1469116,
0.2491666675,298.9362488,
0.2508333325,299.6725464,
0.2524999976,298.9100037,
0.2541666627,298.6241455,
0.2558333278,296.3860779,
0.2574999928,298.6870422,
0.2591666579,297.9613037,
0.2608333528,298.0341187,
0.2624999881,299.1603394,
0.264166683,298.1060791,
0.2658333182,300.5375671,
0.2675000131,298.968811,
0.2691666484,298.8167725,
0.2708333433,298.5144958,
0.2725000083,298.0679626,
0.2741666734,298.258606,
0.2758333385,296.4995728,
0.2775000036,299.0880127,
0.2791666687,297.9758911,
0.2808333337,299.4621582,
0.2824999988,296.2745972,
0.2841666937,298.8821106,
0.285833329,298.2628174,
0.287499994,297.2066956,
0.2891666591,299.5533752,
0.290833354,297.1647949,
0.2925000191,298.8582153,
0.2941666543,298.4490662,
0.2958333194,298.4024963,
0.2975000143,299.2414856,
0.2991666794,301.31073,
0.3008333445,299.9511719,
0.3024999797,300.0707703,
0.3041666746,298.6623535,
0.3058333397,298.5552673,
0.3075000048,299.135437,
0.3091666996,299.4165955,
0.3108333349,299.9778748,
0.3125,299.828949,
0.3141666651,299.7102966,
0.31583336,303.0012817,
0.317500025,301.5194092,
0.3191666603,300.1452637,
0.3208333254,302.5551758,
0.3225000203,298.3887939,
0.3241666853,298.5672913,
0.3258333504,300.5344849,
0.3274999857,299.0068054,
0.3291666806,298.3018799,
0.3308333457,299.7828369,
0.3325000107,300.1608276,
0.3341666758,301.1480103,
0.3358333409,299.4166565,
0.337500006,298.0232849,
0.339166671,299.1212769,
0.3408333361,301.2175293,
0.342500031,300.7018127,
0.3441666663,300.6152649,
0.3458333313,300.2095642,
0.3474999964,298.8537598,
0.3491666913,297.9311829,
0.3508333564,299.2610779,
0.3524999917,298.4891052,
0.3541666567,301.4457092,
0.3558333516,297.3736572,
0.3575000167,297.8894348,
0.3591666818,298.425293,
0.360833317,298.4463196,
0.3625000119,297.4876709,
0.364166677,299.5509949,
0.3658333421,298.361084,
0.3675000072,297.168335,
0.3691666722,299.3600769,
0.3708333373,298.3931274,
0.3725000024,299.6439819,
0.3741666675,297.918335,
0.3758333623,298.1148987,
0.3774999976,299.0421753,
0.3791666627,299.0272217,
0.3808333278,296.7935181,
0.3825000226,298.6943054,
0.3841666877,299.1925049,
0.385833323,297.048584,
0.3874999881,297.2884216,
0.389166683,297.4090576,
0.390833348,298.1355896,
0.3925000131,297.5819092,
0.3941666484,298.4685364,
0.3958333433,297.6257935,
0.3975000083,299.6498413,
0.3991666734,296.5918884,
0.4008333385,298.348114,
0.4025000036,300.4730225,
0.4041666687,298.8155823,
0.4058333337,299.0302124,
0.4074999988,298.3162231,
0.4091666937,296.9800415,
0.410833329,298.9324036,
0.412499994,298.3380127,
0.4141666591,298.7109375,
0.415833354,299.4777222,
0.4175000191,300.0116272,
0.4191666543,298.7281189,
0.4208333194,297.6188354,
0.4225000143,297.7612915,
0.4241666794,299.5935669,
0.4258333445,299.6220093,
0.4274999797,298.8395386,
0.4291666746,299.191803,
0.4308333397,298.2891235,
0.4325000048,297.8040771,
0.4341666996,300.6384583,
0.4358333349,298.3424072,
0.4375,298.2793274,
0.4391666651,301.4837646,
0.44083336,296.3899841,
0.442500025,299.7729187,
0.4441666603,297.6630249,
0.4458333254,298.8441772,
0.4475000203,294.6307373,
0.4491666853,298.8493958,
0.4508333504,299.800415,
0.4524999857,299.3978882,
0.4541666806,300.588562,
0.4558333457,299.3784485,
0.4575000107,298.9493713,
0.4591666758,301.6836548,
0.4608333409,299.4389954,
0.462500006,301.0805054,
0.464166671,298.655426,
0.4658333361,300.9050293,
0.467500031,300.8985901,
0.4691666663,297.97052,
0.4708333313,298.5054016,
0.4724999964,300.3729248,
0.4741666913,299.9108887,
0.4758333564,299.1658936,
0.4774999917,298.4967651,
0.4791666567,298.9216919,
0.4808333516,298.8461609,
0.4825000167,299.2622986,
0.4841666818,299.0367432,
0.485833317,298.331543,
0.4875000119,299.230072,
0.489166677,298.2693481,
0.4908333421,297.9130554,
0.4925000072,300.8737488,
0.4941666722,298.3952942,
0.4958333373,299.0602417,
0.4975000024,298.1459961,
0.4991666675,297.8533325,
0.5008333325,298.5002747,
0.5024999976,297.5470886,
0.5041666627,296.6157532,
0.5058333278,297.2752075,
0.5074999928,299.3690796,
0.5091666579,298.9719238,
0.510833323,299.3197632,
0.5124999881,296.6291199,
0.5141666532,297.2493286,
0.5158333182,299.0606384,
0.5175000429,299.3921814,
0.5191666484,298.6173401,
0.5208333135,297.2704468,
0.5224999785,297.9703064,
0.5241667032,298.4922485,
0.5258333683,300.0341797,
0.5274999738,297.62677,
0.5291666389,300.6001587,
0.5308333635,297.8682861,
0.5325000286,299.0432129,
0.5341666341,298.6096497,
0.5358333588,298.7660828,
0.5375000238,298.6511536,
0.5391666889,295.3634033,
0.540833354,299.0673523,
0.5424999595,298.8135681,
0.5441666842,297.168457,
0.5458333492,298.130249,
0.5475000143,298.1290283,
0.5491666794,299.4631653,
0.5508333445,297.2471008,
0.5525000095,298.022644,
0.5541666746,299.1884766,
0.5558333993,299.4759521,
0.5575000048,299.6148682,
0.5591666698,298.0177307,
0.5608333349,297.7015381,
0.5625,297.4421387,
0.5641667247,296.9664612,
0.5658333302,297.5463257,
0.5674999952,295.7915649,
0.5691667199,298.0028076,
0.5708333254,299.0210571,
0.5725000501,300.843689,
0.5741666555,301.5817871,
0.5758333206,298.5665894,
0.5775000453,298.5388794,
0.5791666508,298.9382935,
0.5808333755,298.6447449,
0.5825000405,298.1016541,
0.584166646,299.0428772,
0.5858333707,298.317688,
0.5874999762,299.15271,
0.5891667008,298.3421326,
0.5908333659,296.9198303,
0.5924999714,301.8922729,
0.5941666961,300.0857239,
0.5958333611,297.7857361,
0.5975000262,301.4133911,
0.5991666913,299.0241089,
0.6008332968,298.6946411,
0.6025000215,298.8130798,
0.6041666865,297.8936768,
0.6058333516,298.7249146,
0.6075000167,300.9227295,
0.6091666818,299.2284851,
0.6108333468,300.2402039,
0.6125000119,298.7921753,
0.614166677,298.7371826,
0.6158333421,300.7416687,
0.6175000072,297.7852478,
0.6191666722,297.9232483,
0.6208333373,296.690979,
0.622500062,298.5923157,
0.6241666675,299.8289185,
0.6258333325,298.2146301,
0.6274999976,298.0219727,
0.6291666627,298.6070251,
0.6308333874,297.1329346,
0.6324999928,298.5794983,
0.6341666579,297.2246399,
0.6358333826,298.3748779,
0.6374999881,298.1993408,
0.6391667128,298.3204956,
0.6408333182,297.3369446,
0.6424999833,296.3817749,
0.644166708,297.7762451,
0.6458333135,300.903717,
0.6475000381,297.1949463,
0.6491667032,299.0723877,
0.6508333087,298.2979126,
0.6525000334,298.6130371,
0.6541666389,297.9657593,
0.6558333635,298.3325806,
0.6575000286,299.3659668,
0.6591666341,299.72052,
0.6608333588,297.2185059,
0.6625000238,296.8482056,
0.6641666889,297.2762451,
0.665833354,297.7723999,
0.6674999595,297.4230042,
0.6691666842,298.7043762,
0.6708333492,298.6712341,
0.6725000143,299.09729,
0.6741666794,300.7144165,
0.6758333445,297.1677551,
0.6775000095,299.5365295,
0.6791666746,297.9940186,
0.6808333993,297.9259338,
0.6825000048,298.8000793,
0.6841666698,297.8542175,
0.6858333349,298.1620483,
0.6875,298.5818787,
0.6891667247,298.5715637,
0.6908333302,299.6912231,
0.6924999952,299.1047058,
0.6941667199,298.6956787,
0.6958333254,296.5747681,
0.6975000501,298.1271973,
0.6991666555,297.5121155,
0.7008333206,299.0529785,
0.7025000453,299.188446,
0.7041666508,297.7553101,
0.7058333755,298.9114685,
0.7075000405,298.3699341,
0.709166646,296.8064575,
0.7108333707,296.5099792,
0.7124999762,296.270752,
0.7141667008,298.4377747,
0.7158333659,299.5467529,
0.7174999714,296.4009399,
0.7191666961,297.9119568,
0.7208333611,298.5542297,
0.7225000262,298.2501831,
0.7241666913,296.8600159,
0.7258332968,297.6322021,
0.7275000215,301.2006531,
0.7291666865,297.1639099,
0.7308333516,298.2924805,
0.7325000167,298.6020203,
0.7341666818,299.2423706,
0.7358333468,297.2903442,
0.7375000119,297.4394836,
0.739166677,299.2210388,
0.7408333421,299.9266052,
0.7425000072,297.7709045,
0.7441666722,296.9121399,
0.7458333373,299.2721863,
0.747500062,298.0352783,
0.7491666675,299.2295532,
0.7508333325,299.5534363,
0.7524999976,298.45401,
0.7541666627,297.4787903,
0.7558333874,298.1804504,
0.7574999928,300.6647034,
0.7591666579,297.3338623,
0.7608333826,298.8086548,
0.7624999881,300.503418,
0.7641667128,299.5513916,
0.7658333182,297.731842,
0.7674999833,298.039978,
0.769166708,298.6290894,
0.7708333135,300.1735535,
0.7725000381,296.862854,
0.7741667032,299.6134949,
0.7758333087,302.0322266,
0.7775000334,298.4856567,
0.7791666389,298.4266968,
0.7808333635,297.9297485,
0.7825000286,297.7415466,
0.7841666341,299.1481628,
0.7858333588,299.6689758,
0.7875000238,298.3130798,
0.7891666889,297.0760498,
0.790833354,296.66922,
0.7924999595,298.8403625,
0.7941666842,297.8950806,
0.7958333492,298.0483704,
0.7975000143,296.6298218,
0.7991666794,300.0335999,
0.8008333445,299.9538269,
0.8025000095,297.8712769,
0.8041666746,300.355072,
0.8058333993,299.6156616,
0.8075000048,297.4533081,
0.8091666698,298.8874817,
0.8108333349,298.9535522,
0.8125,299.1574402,
0.8141667247,298.321991,
0.8158333302,299.148407,
0.8174999952,300.6321716,
0.8191667199,299.9653015,
0.8208333254,296.9996033,
0.8225000501,297.2415161,
0.8241666555,296.9085693,
0.8258333206,298.8932495,
0.8275000453,296.2891235,
0.8291666508,299.565155,
0.8308333755,298.0056152,
0.8325000405,299.6280212,
0.834166646,297.3922729,
0.8358333707,298.8031311,
0.8374999762,299.1038513,
0.8391667008,298.313446,
0.8408333659,297.062439,
0.8424999714,298.6066589,
0.8441666961,298.1979675,
0.8458333611,296.6126099,
0.8475000262,296.6045837,
0.8491666913,297.8124084,
0.8508332968,296.0402527,
0.8525000215,298.5586243,
0.8541666865,297.427002,
0.8558333516,297.9067688,
0.8575000167,295.6064758,
0.8591666818,297.741394,
0.8608333468,297.188324,
0.8625000119,296.9304199,
0.864166677,297.9395142,
0.8658333421,296.941925,
0.8675000072,299.2639771,
0.8691666722,296.0011902,
0.8708333373,297.936676,
0.872500062,300.1307068,
0.8741666675,297.7275085,
0.8758333325,296.3965759,
0.8774999976,296.933136,
0.8791666627,296.8728333,
0.8808333874,297.7247314,
0.8824999928,299.2171326,
0.8841666579,298.0874939,
0.8858333826,296.0276794,
0.8874999881,297.2068481,
0.8891667128,298.2463684,
0.8908333182,298.2651367,
0.8924999833,299.1127319,
0.894166708,297.0136108,
0.8958333135,296.8697205,
0.8975000381,296.3201904,
0.8991667032,296.8540955,
0.9008333087,297.0534973,
0.9025000334,299.507843,
0.9041666389,296.5057373,
0.9058333635,295.8527222,
0.9075000286,297.3135071,
0.9091666341,297.0015259,
0.9108333588,299.9438477,
0.9125000238,297.897644,
0.9141666889,297.1329346,
0.915833354,296.2688599,
0.9174999595,298.0041809,
0.9191666842,296.563446,
0.9208333492,298.579834,
0.9225000143,297.3026733,
0.9241666794,299.2539978,
0.9258333445,296.9889221,
0.9275000095,297.9476929,
0.9291666746,296.1098022,
0.9308333993,296.058136,
0.9325000048,298.1519165,
0.9341666698,300.811615,
0.9358333349,299.539856,
0.9375,296.7525635,
0.9391667247,300.5235596,
0.9408333302,297.5866089,
0.9424999952,298.3971252,
0.9441667199,294.7388,
0.9458333254,297.2546692,
0.9475000501,296.3855896,
0.9491666555,298.3108521,
0.9508333206,298.3828125,
0.9525000453,296.9294739,
0.9541666508,297.91922,
0.9558333755,295.1780396,
0.9575000405,298.9516907,
0.959166646,298.6221619,
0.9608333707,296.9606323,
0.9624999762,299.035553,
0.9641667008,299.340332,
0.9658333659,298.5322571,
0.9674999714,298.072937,
0.9691666961,297.609314,
0.9708333611,297.1769714,
0.9725000262,298.9432068,
0.9741666913,298.3305969,
0.9758332968,298.1191711,
0.9775000215,299.7314453,
0.9791666865,297.375946,
0.9808333516,297.306488,
0.9825000167,298.8259888,
0.9841666818,296.4354553,
0.9858333468,299.096283,
0.9875000119,296.4934692,
0.989166677,297.3788757,
0.9908333421,297.6656494,
0.9925000072,295.8142395,
0.9941666722,298.4482727,
0.9958333373,296.760376,
0.997500062,295.2965698,
0.9991666675,298.3317871,
1.000833273,298.4306335,
1.002500057,297.3309631,
1.004166722,297.1617737,
1.005833387,297.8552246,
1.007500052,298.5835266,
1.009166598,298.361145,
1.010833383,297.1459961,
1.012500048,298.1991882,
1.014166713,298.0012512,
1.015833378,297.8963928,
1.017500043,297.0128784,
1.019166708,298.5726624,
1.020833373,298.3088989,
1.022500038,297.6641541,
1.024166703,298.5327148,
1.025833368,298.7059937,
1.027500033,296.3637085,
1.029166698,298.8363037,
1.030833364,297.4604187,
1.032500029,298.2666931,
1.034166694,298.0904236,
1.035833359,296.2364502,
1.037500024,298.6994934,
1.039166689,296.5693359,
1.040833354,298.0578308,
1.042500019,296.2622375,
1.044166684,297.516571,
1.045833349,297.9755249,
1.047500014,298.9095764,
1.049166679,297.9883118,
1.050833344,300.696228,
1.05250001,297.170929,
1.054166675,297.4363098,
1.05583334,295.3781128,
1.057500005,299.3432617,
1.05916667,296.676239,
1.060833335,295.3168945,
1.0625,297.4028625,
1.064166665,297.619812,
1.06583333,297.9785461,
1.067499995,295.8450012,
1.06916666,296.2153931,
1.070833325,297.8375854,
1.07249999,297.4672546,
1.074166775,298.2629089,
1.07583344,297.2479248,
1.077499986,296.9776917,
1.079166651,297.1788025,
1.080833316,296.7276306,
1.0825001,297.5911255,
1.084166765,295.4983521,
1.085833311,296.6113281,
1.087499976,298.3429871,
1.089166641,296.457489,
1.090833426,298.6292419,
1.092500091,296.6129761,
1.094166636,297.8192139,
1.095833302,297.1251221,
1.097499967,299.6462097,
1.099166751,298.8437195,
1.100833416,296.4451904,
1.102500081,297.7013855,
1.104166627,297.4781189,
1.105833292,298.535675,
1.107500076,295.9334106,
1.109166741,299.3736877,
1.110833406,297.7840881,
1.112499952,296.1067505,
1.114166617,297.8190002,
1.115833402,298.5983582,
1.117500067,295.859436,
1.119166732,298.0238647,
1.120833278,301.2414551,
1.122499943,296.7837524,
1.124166727,298.0380249,
1.125833392,297.4957581,
1.127500057,297.4894409,
1.129166722,297.0273132,
1.130833268,296.6131287,
1.132500052,296.2529907,
1.134166718,298.5693665,
1.135833383,297.111145,
1.137500048,296.2544861,
1.139166594,297.0334473,
1.140833378,295.5010376,
1.142500043,295.5243835,
1.144166708,295.9393005,
1.145833373,295.1249695,
1.147499919,297.3012085,
1.149166703,297.8415833,
1.150833368,296.1762695,
1.152500033,296.6507263,
1.154166698,297.1422119,
1.155833364,297.6894836,
1.157500029,297.3786621,
1.159166694,296.9329224,
1.160833359,297.9548035,
1.162500024,297.6633301,
1.164166689,299.5690918,
1.165833354,295.2077026,
1.167500019,295.9708862,
1.169166684,297.4245605,
1.170833349,301.9258118,
1.172500014,297.9518738,
1.174166799,298.1645203,
1.175833344,295.979248,
1.17750001,300.6177368,
1.179166675,297.9651489,
1.18083334,298.2551575,
1.182500124,298.96875,
1.18416667,296.7844543,
1.185833335,296.8653564,
1.1875,296.0800781,
1.189166665,297.862854,
1.190833449,295.944519,
1.192499995,297.0075684,
1.19416666,296.21521,
1.195833325,299.6211548,
1.19749999,299.8480835,
1.199166775,296.4560852,
1.20083344,298.1739807,
1.202499986,299.3007202,
1.204166651,298.4551086,
1.205833316,297.2727356,
1.2075001,296.961853,
1.209166765,296.8243103,
1.210833311,297.5237122,
1.212499976,297.6854248,
1.214166641,299.1004333,
1.215833426,299.505249,
1.217500091,297.682312,
1.219166636,298.5516968,
1.220833302,298.0632324,
1.222499967,298.5203552,
1.224166751,297.9989929,
1.225833416,296.8769531,
1.227500081,298.5680847,
1.229166627,297.2597656,
1.230833292,298.805542,
1.232500076,296.6192017,
1.234166741,297.1877136,
1.235833406,297.3952332,
1.237499952,298.2754211,
1.239166617,297.2527161,
1.240833402,297.23349,
1.242500067,296.1170044,
1.244166732,296.6765442,
1.245833278,296.9802246,
1.247499943,298.2895508,
1.249166727,297.4502258,
1.250833392,297.8222656,
1.252500057,298.1925659,
1.254166722,297.9085083,
1.255833268,297.2762451,
1.257500052,296.9527588,
1.259166718,298.4067993,
1.260833383,297.0429077,
1.262500048,297.1567993,
1.264166594,298.0232544,
1.265833378,295.9255371,
1.267500043,298.0746155,
1.269166708,296.723938,
1.270833373,295.1855469,
1.272499919,295.9429321,
1.274166703,298.3929443,
1.275833368,297.989563,
1.277500033,297.0944519,
1.279166698,298.3128357,
1.280833364,297.9384766,
1.282500029,298.4732971,
1.284166694,296.6985168,
1.285833359,297.1237183,
1.287500024,296.9394531,
1.289166689,295.9571838,
1.290833354,296.3629761,
1.292500019,296.9424744,
1.294166684,295.7854919,
1.295833349,296.3088379,
1.297500014,297.5782166,
1.299166799,297.4154053,
1.300833344,295.602417,
1.30250001,298.723175,
1.304166675,298.7579041,
1.30583334,298.517334,
1.307500124,297.4247437,
1.30916667,297.177063,
1.310833335,297.6331177,
1.3125,295.6143799,
1.314166665,295.6167297,
1.315833449,296.8859253,
1.317499995,298.0093384,
1.31916666,297.8869629,
1.320833325,295.2683411,
1.32249999,296.660553,
1.324166775,297.7666016,
1.32583344,296.4863281,
1.327499986,296.6105957,
1.329166651,295.6405029,
1.330833316,297.1328125,
1.3325001,296.3651123,
1.334166765,296.6647339,
1.335833311,297.2069702,
1.337499976,298.165741,
1.339166641,297.4229126,
1.340833426,295.962738,
1.342500091,296.6254883,
1.344166636,298.814209,
1.345833302,297.5212097,
1.347499967,297.311615,
1.349166751,297.6455078,
1.350833416,297.802124,
1.352500081,296.8175659,
1.354166627,296.8818054,
1.355833292,297.288269,
1.357500076,296.5264587,
1.359166741,298.6495056,
1.360833406,298.3445435,
1.362499952,295.3658142,
1.364166617,298.8574829,
1.365833402,298.5248413,
1.367500067,296.1996155,
1.369166732,297.0213623,
1.370833278,297.0863037,
1.372499943,296.6824951,
1.374166727,296.5941162,
1.375833392,298.7446594,
1.377500057,297.3737488,
1.379166722,296.7865601,
1.380833268,297.9707336,
1.382500052,296.3804932,
1.384166718,297.0142517,
1.385833383,297.8644714,
1.387500048,297.6378174,
1.389166594,298.5201111,
1.390833378,297.757843,
1.392500043,298.0873413,
1.394166708,296.5468445,
1.395833373,296.5979919,
1.397499919,296.6618347,
1.399166703,297.2735901,
1.400833368,297.9310303,
1.402500033,296.4094543,
1.404166698,297.6096191,
1.405833364,297.624939,
1.407500029,299.1583557,
1.409166694,297.7573547,
1.410833359,298.2506409,
1.412500024,297.3397522,
1.414166689,297.7465515,
1.415833354,296.4292908,
1.417500019,296.1012573,
1.419166684,298.2886658,
1.420833349,296.3790283,
1.422500014,297.996582,
1.424166799,295.3557739,
1.425833344,295.2102051,
1.42750001,297.9866638,
1.429166675,296.1117554,
1.43083334,299.8083496,
1.432500124,297.2269592,
1.43416667,299.1702271,
1.435833335,299.1340027,
1.4375,298.4691467,
1.439166665,298.1528931,
1.440833449,296.8708496,
1.442499995,296.8094788,
1.44416666,269.3579102,
1.445833325,249.5509644,
1.44749999,240.0454102,
1.449166775,226.1448975,
1.45083344,262.6462097,
1.452499986,251.8560944,
1.454166651,263.0212708,
1.455833316,281.2560425,
1.4575001,276.9656982,
1.459166765,286.6684875,
1.460833311,286.5223389,
1.462499976,286.8462524,
1.464166641,287.3471985,
1.465833426,278.9819031,
1.467500091,265.023407,
1.469166636,295.5114746,
1.470833302,298.990509,
1.472499967,300.322998,
1.474166751,298.5031128,
1.475833416,298.1795044,
1.477500081,301.2010803,
1.479166627,300.9492798,
1.480833292,299.894104,
1.482500076,301.9310608,
1.484166741,300.7292786,
1.485833406,302.4085083,
1.487499952,301.3092957,
1.489166617,302.4973145,
1.490833402,302.540802,
1.492500067,301.519043,
1.494166732,304.7306824,
1.495833278,304.8204041,
1.497499943,302.8403625,
1.499166727,304.6460571,
1.500833392,303.8160095,
1.502500057,306.2208862,
1.504166722,305.524231,
1.505833268,304.8789978,
1.507500052,304.8984375,
1.509166718,306.8769836,
1.510833383,308.0240479,
1.512500048,308.3963928,
1.514166594,307.6553345,
1.515833378,309.8761292,
1.517500043,307.1720581,
1.519166708,307.4647827,
1.520833373,309.5683289,
1.522499919,308.3682861,
1.524166703,308.8753357,
1.525833368,309.9425659,
1.527500033,308.8380127,
1.529166698,308.9269409,
1.530833364,309.4479065,
1.532500029,308.6670227,
1.534166694,310.1771545,
1.535833359,311.2193298,
1.537500024,311.242157,
1.539166689,310.2996216,
1.540833354,309.1177979,
1.542500019,312.0370483,
1.544166684,311.8216248,
1.545833349,311.2488708,
1.547500014,309.9325867,
1.549166799,312.4015198,
1.550833344,313.6049805,
1.55250001,314.2641907,
1.554166675,313.4165955,
1.55583334,312.8299255,
1.557500124,313.2410889,
1.55916667,313.4536133,
1.560833335,312.6512146,
1.5625,312.3521118,
1.564166665,315.282959,
1.565833449,316.5609131,
1.567499995,315.1068115,
1.56916666,313.9930725,
1.570833325,313.5681458,
1.57249999,314.2536926,
1.574166775,315.1911926,
1.57583344,314.4697876,
1.577499986,318.2541504,
1.579166651,314.3970642,
1.580833316,314.5261841,
1.5825001,315.3171387,
1.584166765,315.7277832,
1.585833311,316.0534668,
1.587499976,317.9612732,
1.589166641,315.0959167,
1.590833426,316.8601074,
1.592500091,317.8390503,
1.594166636,315.538208,
1.595833302,315.7723694,
1.597499967,319.1706543,
1.599166751,316.2532349,
1.600833416,316.4627686,
1.602500081,319.2432251,
1.604166627,316.6059265,
1.605833292,317.539978,
1.607500076,317.1444702,
1.609166741,318.1751099,
1.610833406,316.7285156,
1.612499952,319.0197754,
1.614166617,317.6410217,
1.615833402,318.5376892,
1.617500067,318.3690491,
1.619166732,317.0490112,
1.620833278,317.4962463,
1.622499943,316.6126099,
1.624166727,317.5723572,
1.625833392,317.4267273,
1.627500057,320.434021,
1.629166722,316.7261658,
1.630833268,317.4940186,
1.632500052,317.8052673,
1.634166718,319.2636414,
1.635833383,320.2940063,
1.637500048,319.3744202,
1.639166594,319.690918,
1.640833378,318.7981567,
1.642500043,318.3768311,
1.644166708,319.9689026,
1.645833373,317.7418823,
1.647499919,320.28125,
1.649166703,317.3829956,
1.650833368,318.6038513,
1.652500033,319.9802551,
1.654166698,320.2342224,
1.655833364,319.366272,
1.657500029,319.8999939,
1.659166694,319.761261,
1.660833359,322.4249878,
1.662500024,320.1413574,
1.664166689,319.0307922,
1.665833354,318.3570251,
1.667500019,320.1547546,
1.669166684,320.1160278,
1.670833349,321.6145325,
1.672500014,320.3288879,
1.674166799,319.2232971,
1.675833344,319.7930603,
1.67750001,320.6066589,
1.679166675,317.995697,
1.68083334,320.1439819,
1.682500124,321.3118591,
1.68416667,319.9961853,
1.685833335,321.0105286,
1.6875,319.5471191,
1.689166665,319.6598511,
1.690833449,321.5066833,
1.692499995,321.5137329,
1.69416666,320.5031738,
1.695833325,319.6170654,
1.69749999,320.3422852,
1.699166775,321.1189575,
1.70083344,321.2914429,
1.702499986,320.821228,
1.704166651,319.144104,
1.705833316,320.3045349,
1.7075001,321.6923523,
1.709166765,321.4831848,
1.710833311,321.4833374,
1.712499976,319.8871765,
1.714166641,322.6830139,
1.715833426,320.841217,
1.717500091,321.8847961,
1.719166636,322.5256653,
1.720833302,322.3330688,
1.722499967,319.7153015,
1.724166751,321.911499,
1.725833416,322.8018799,
1.727500081,322.2513123,
1.729166627,320.2106934,
1.730833292,320.1442261,
1.732500076,323.2462769,
1.734166741,320.2432861,
1.735833406,320.5379028,
1.737499952,323.5256958,
1.739166617,321.1421814,
1.740833402,323.9411621,
1.742500067,322.9807434,
1.744166732,320.9058228,
1.745833278,322.383728,
1.747499943,320.6777039,
1.749166727,321.6679382,
1.750833392,322.5302124,
1.752500057,322.6514587,
1.754166722,323.2349854,
1.755833268,322.1265869,
1.757500052,320.6534119,
1.759166718,322.5206909,
1.760833383,324.0300293,
1.762500048,322.9694519,
1.764166594,320.6646729,
1.765833378,324.4589233,
1.767500043,320.6416931,
1.769166708,321.973877,
1.770833373,321.7210083,
1.772499919,323.6690979,
1.774166703,322.7566223,
1.775833368,321.5675964,
1.777500033,322.5354919,
1.779166698,325.7498169,
1.780833364,323.4809265,
1.782500029,322.5573425,
1.784166694,320.7786865,
1.785833359,322.5420837,
1.787500024,323.4206848,
1.789166689,323.3197937,
1.790833354,323.4750366,
1.792500019,322.6533813,
1.794166684,325.8572388,
1.795833349,322.9926453,
1.797500014,321.5346985,
1.799166799,322.7080078,
1.800833344,321.7694092,
1.80250001,322.6616516,
1.804166675,320.3971863,
1.80583334,323.7070618,
1.807500124,325.732666,
1.80916667,323.4371033,
1.810833335,322.0744934,
1.8125,324.3019104,
1.814166665,323.026062,
1.815833449,322.1703491,
1.817499995,323.9184265,
1.81916666,324.4450073,
1.820833325,324.410614,
1.82249999,322.2561646,
1.824166775,321.8354187,
1.82583344,322.289032,
1.827499986,322.1309509,
1.829166651,323.5205383,
1.830833316,325.1932373,
1.8325001,323.6721802,
1.834166765,321.5960083,
1.835833311,322.8486938,
1.837499976,323.6291199,
1.839166641,322.6022949,
1.840833426,322.1748657,
1.842500091,322.8079224,
1.844166636,322.9311829,
1.845833302,325.3060303,
1.847499967,324.4002075,
1.849166751,325.0075073,
1.850833416,322.8276978,
1.852500081,322.5707092,
1.854166627,324.3745728,
1.855833292,322.9118652,
1.857500076,322.4555664,
1.859166741,323.5160217,
1.860833406,324.4797668,
1.862499952,322.3348389,
1.864166617,322.3416138,
1.865833402,324.2965393,
1.867500067,324.263031,
1.869166732,321.7415466,
1.870833278,325.1547852,
1.872499943,322.6880493,
1.874166727,323.6599731,
1.875833392,323.255127,
1.877500057,323.5527039,
1.879166722,324.0731506,
1.880833268,322.7876282,
1.882500052,324.2632446,
1.884166718,322.5328064,
1.885833383,323.9805603,
1.887500048,325.3149719,
1.889166594,323.06604,
1.890833378,322.0061035,
1.892500043,323.3169556,
1.894166708,323.3453064,
1.895833373,324.1539612,
1.897499919,323.052948,
1.899166703,323.6083069,
1.900833368,322.8052063,
1.902500033,321.466217,
1.904166698,321.4976196,
1.905833364,323.7457275,
1.907500029,323.6801758,
1.909166694,323.4450073,
1.910833359,322.7983093,
1.912500024,324.3287964,
1.914166689,323.7442627,
1.915833354,323.4866943,
1.917500019,322.0220337,
1.919166684,322.756958,
1.920833349,323.0714417,
1.922500014,323.9476929,
1.924166799,323.4924011,
1.925833344,323.6144409,
1.92750001,323.3940125,
1.929166675,324.3791504,
1.93083334,322.3641968,
1.932500124,326.303772,
1.93416667,322.2198181,
1.935833335,322.8137512,
1.9375,325.1251221,
1.939166665,325.1033936,
1.940833449,323.9725037,
1.942499995,325.6000671,
1.94416666,323.6296082,
1.945833325,324.4701843,
1.94749999,324.226532,
1.949166775,325.4688416,
1.95083344,323.1000671,
1.952499986,325.3969116,
1.954166651,324.1715088,
1.955833316,325.5872803,
1.9575001,325.4190369,
1.959166765,323.130249,
1.960833311,324.4581909,
1.962499976,322.9422913,
1.964166641,323.4134521,
1.965833426,324.0444641,
1.967500091,326.2410583,
1.969166636,323.3894653,
1.970833302,324.6082458,
1.972499967,322.9632263,
1.974166751,326.578186,
1.975833416,325.2979431,
1.977500081,324.8806458,
1.979166627,323.5263977,
1.980833292,322.4346924,
1.982500076,325.0504456,
1.984166741,324.7756653,
1.985833406,323.6789856,
1.987499952,324.5982666,
1.989166617,322.0033875,
1.990833402,326.0857544,
1.992500067,323.1628418,
1.994166732,324.1922913,
1.995833278,325.0131531,
1.997499943,325.4669189,
1.999166727,324.7464294,
2.000833273,324.4146423,
2.002500057,325.1280823,
2.004166603,324.572998,
2.005833387,323.71698,
2.007500172,326.3058777,
2.009166718,323.0918274,
2.010833263,324.1907654,
2.012500048,324.0067749,
2.014166594,324.0822144,
2.015833378,327.5525513,
2.017500162,323.0700684,
2.019166708,325.6424866,
2.020833254,325.4840088,
2.022500038,324.9787292,
2.024166822,323.5701904,
2.025833368,325.7919922,
2.027499914,325.1497803,
2.029166698,325.6985168,
2.030833244,325.8916321,
2.032500029,323.2564087,
2.034166813,322.9628906,
2.035833359,325.0057678,
2.037499905,325.0935059,
2.039166689,323.922699,
2.040833473,324.5894775,
2.042500019,323.5343933,
2.044166803,323.3421021,
2.045833349,324.1579895,
2.047499895,325.1425171,
2.049166679,325.5675049,
2.050833464,325.3519592,
2.05250001,322.7138367,
2.054166555,324.9777832,
2.05583334,323.8132629,
2.057500124,325.0107727,
2.05916667,324.6277466,
2.060833454,324.0617981,
2.0625,325.2241821,
2.064166546,327.9164734,
2.06583333,326.2431946,
2.067500114,323.3942261,
2.06916666,326.0419617,
2.070833445,324.2633362,
2.07249999,326.4891357,
2.074166775,324.430481,
2.075833321,323.7817383,
2.077500105,323.3103943,
2.079166651,324.3161011,
2.080833197,325.1757507,
2.082499981,323.2138977,
2.084166765,322.1156616,
2.085833311,325.1307373,
2.087500095,324.6634827,
2.089166641,324.1603088,
2.090833426,324.2956543,
2.092499971,323.7215576,
2.094166756,325.4854736,
2.095833302,323.4810181,
2.097500086,323.2104797,
2.099166632,323.8527222,
2.100833416,323.42453,
2.102499962,324.1609802,
2.104166746,325.0799561,
2.105833292,323.1235657,
2.107500076,323.6018066,
2.109166622,327.0038757,
2.110833406,324.3096313,
2.112499952,322.3257751,
2.114166737,323.4251709,
2.115833521,322.8653564,
2.117500067,323.9823914,
2.119166613,323.9002686,
2.120833397,322.4364319,
2.122499943,322.5357666,
2.124166727,322.2678223,
2.125833273,324.294281,
2.127500057,325.3624573,
2.129166603,326.5509338,
2.130833387,325.4515381,
2.132500172,323.8111877,
2.134166718,326.3934021,
2.135833502,323.5733337,
2.137500048,325.9703979,
2.139166832,322.8075867,
2.140833378,323.8097534,
2.142500162,324.4612427,
2.144166708,322.0873413,
2.145833254,322.6496277,
2.147500038,325.5440979,
2.149166584,325.428772,
2.150833368,324.9076538,
2.152500153,325.1052856,
2.154166698,325.6197205,
2.155833483,324.3215637,
2.157500029,322.4648743,
2.159166813,324.1417236,
2.160833597,324.4707947,
2.162499905,324.4556885,
2.164166689,323.4547424,
2.165833235,324.3440247,
2.167500019,325.7234192,
2.169166803,324.3316345,
2.170833349,323.0929565,
2.172500134,323.3219299,
2.174166679,323.9473267,
2.175833464,324.2950134,
2.177500248,325.0592346,
2.179166555,325.6165161,
2.18083334,324.5970154,
2.182499886,326.3438416,
2.18416667,325.5194092,
2.185833454,325.0272217,
2.1875,323.6166382,
2.189166784,324.6943054,
2.19083333,324.0657654,
2.192500114,324.6539307,
2.194166899,324.2337952,
2.195833445,323.6291809,
2.19749999,326.4101868,
2.199166536,325.4205322,
2.200833321,326.1747437,
2.202500105,323.0446777,
2.204166651,324.8487854,
2.205833435,324.8633423,
2.207499981,324.0711975,
2.209166765,326.0984192,
2.210833549,324.2010193,
2.212500095,326.1173401,
2.21416688,324.9058533,
2.215833187,324.5837402,
2.217499971,325.6343384,
2.219166756,325.0341492,
2.220833302,323.3444214,
2.222500086,323.8129272,
2.224166632,325.4385376,
2.225833416,325.4249268,
2.2275002,325.9534912,
2.229166746,326.4169922,
2.23083353,324.3630981,
2.232499838,326.1200256,
2.234166622,325.2068481,
2.235833406,322.8540955,
2.237499952,322.1113892,
2.239166737,324.2151184,
2.240833282,324.5394897,
2.242500067,325.9398499,
2.244166851,325.6910095,
2.245833397,323.4271851,
2.247500181,326.2305603,
2.249166727,325.1445007,
2.250833273,324.5371094,
2.252500057,324.3605042,
2.254166603,324.7347412,
2.255833387,324.6772461,
2.257499933,324.5715942,
2.259166718,326.6109924,
2.260833502,322.4775085,
2.262500048,325.8412781,
2.264166832,324.2303467,
2.265833378,323.9385071,
2.267500162,326.7059021,
2.269166708,325.974884,
2.270833254,325.789856,
2.272500038,325.0352783,
2.274166584,324.2313843,
2.275833368,324.2840881,
2.277500153,324.9017029,
2.279166698,323.4658203,
2.280833483,323.486908,
2.282500029,325.5213013,
2.284166813,323.8735962,
2.285833597,324.4761963,
2.287499905,326.4788818,
2.289166689,326.1923828,
2.290833235,326.2341003,
2.292500019,325.4996338,
2.294166803,324.1610413,
2.295833349,326.0796509,
2.297500134,324.3517151,
2.299166679,323.3990173,
2.300833464,325.6018066,
2.302500248,324.5262756,
2.304166555,323.6988525,
2.30583334,326.1082458,
2.307499886,325.3052979,
2.30916667,324.3556519,
2.310833454,325.2971191,
2.3125,323.8053589,
2.314166784,325.9876404,
2.31583333,324.3371582,
2.317500114,324.7602234,
2.319166899,325.2636414,
2.320833445,324.6409607,
2.32249999,325.4681091,
2.324166536,324.3491516,
2.325833321,325.3215332,
2.327500105,326.9742737,
2.329166651,327.4761658,
2.330833435,324.1998596,
2.332499981,326.8023682,
2.334166765,324.9513245,
2.335833549,325.7507629,
2.337500095,325.3316956,
2.33916688,325.3846741,
2.340833187,324.8712463,
2.342499971,324.8361816,
2.344166756,323.9871826,
2.345833302,326.9743042,
2.347500086,327.7902832,
2.349166632,325.6854858,
2.350833416,325.7501526,
2.3525002,325.6000366,
2.354166746,324.6006165,
2.35583353,324.7610474,
2.357499838,325.2257996,
2.359166622,324.3590088,
2.360833406,324.674408,
2.362499952,326.9631348,
2.364166737,325.9385376,
2.365833282,322.7674866,
2.367500067,326.9743042,
2.369166851,325.6279297,
2.370833397,325.3978882,
2.372500181,320.8330078,
2.374166727,326.8451538,
2.375833273,326.627594,
2.377500057,327.8379822,
2.379166603,324.6704102,
2.380833387,327.4169006,
2.382499933,325.0780029,
2.384166718,325.2020569,
2.385833502,324.4353638,
2.387500048,325.7053528,
2.389166832,326.6114807,
2.390833378,325.4640503,
2.392500162,326.5231018,
2.394166708,323.5308228,
2.395833254,324.3797913,
2.397500038,326.3723755,
2.399166584,325.1723633,
2.400833368,323.3597412,
2.402500153,324.2236938,
2.404166698,325.2785034,
2.405833483,325.114563,
2.407500029,324.8786316,
2.409166813,326.5679626,
2.410833597,324.427002,
2.412499905,324.0725098,
2.414166689,324.2285767,
2.415833235,323.8211975,
2.417500019,324.5493164,
2.419166803,325.1868286,
2.420833349,326.3699951,
2.422500134,324.7536926,
2.424166679,325.4704895,
2.425833464,325.4025879,
2.427500248,325.9321899,
2.429166555,324.9103699,
2.43083334,325.3310242,
2.432499886,326.0097046,
2.43416667,324.9425354,
2.435833454,326.6451416,
2.4375,326.334259,
2.439166784,326.6812744,
2.44083333,324.5805969,
2.442500114,324.4614868,
2.444166899,327.7145081,
2.445833445,324.6460571,
2.44749999,325.845459,
2.449166536,326.0141296,
2.450833321,325.5630798,
2.452500105,325.4561462,
2.454166651,326.3653259,
2.455833435,326.6105652,
2.457499981,324.8383789,
2.459166765,324.4664001,
2.460833549,325.8132629,
2.462500095,325.3961792,
2.46416688,325.3125916,
2.465833187,324.9336548,
2.467499971,327.1073914,
2.469166756,327.0870361,
2.470833302,325.5802612,
2.472500086,325.530304,
2.474166632,327.3839722,
2.475833416,325.8979187,
2.4775002,325.2434082,
2.479166746,325.2490234,
2.48083353,326.5076599,
2.482499838,326.4756165,
2.484166622,324.8056641,
2.485833406,325.7059326,
2.487499952,325.1296082,
2.489166737,326.2479553,
2.490833282,326.2402039,
2.492500067,323.698761,
2.494166851,325.717926,
2.495833397,324.2151794,
2.497500181,324.6143799,
2.499166727,325.0343323,
2.500833273,325.056488,
2.502500057,325.1479492,
2.504166603,327.6101074,
2.505833387,326.3509827,
2.507499933,326.9861755,
2.509166718,326.0638428,
2.510833502,327.1108704,
2.512500048,325.5021667,
2.514166832,328.3496704,
2.515833378,327.377533,
2.517500162,326.0108643,
2.519166708,325.5271301,
2.520833254,326.4492188,
2.522500038,324.3378296,
2.524166584,324.2275696,
2.525833368,323.1439209,
2.527500153,325.1048279,
2.529166698,324.1559143,
2.530833483,325.9933777,
2.532500029,324.9927368,
2.534166813,325.9920959,
2.535833597,328.2102661,
2.537499905,324.6622925,
2.539166689,325.2451782,
2.540833235,325.0808716,
2.542500019,327.276886,
2.544166803,328.6488953,
2.545833349,325.2810669,
2.547500134,327.4551697,
2.549166679,325.2881775,
2.550833464,325.081665,
2.552500248,325.3052063,
2.554166555,324.1313782,
2.55583334,322.7772522,
2.557499886,324.0509033,
2.55916667,327.0457153,
2.560833454,326.1387634,
2.5625,325.0748901,
2.564166784,325.6278381,
2.56583333,325.9858704,
2.567500114,323.5387573,
2.569166899,325.6439819,
2.570833445,325.8463135,
2.57249999,326.6552429,
2.574166536,326.0431824,
2.575833321,326.9031067,
2.577500105,325.3440857,
2.579166651,325.9555664,
2.580833435,325.6498108,
2.582499981,325.5469971,
2.584166765,324.8189087,
2.585833549,325.3579102,
2.587500095,325.1445923,
2.58916688,324.5869446,
2.590833187,323.9423218,
2.592499971,324.2758789,
2.594166756,325.8377686,
2.595833302,325.3658142,
2.597500086,326.2215576,
2.599166632,324.0514221,
2.600833416,326.8575134,
2.6025002,327.1570129,
2.604166746,326.3496094,
2.60583353,325.3956909,
2.607499838,326.2678833,
2.609166622,325.7247009,
2.610833406,325.3851318,
2.612499952,324.1954041,
2.614166737,326.2398987,
2.615833282,323.9827271,
2.617500067,325.8261719,
2.619166851,326.3875732,
2.620833397,326.4142151,
2.622500181,326.4902344,
2.624166727,326.86203,
2.625833273,326.7691956,
2.627500057,325.4328308,
2.629166603,326.4924622,
2.630833387,325.4223022,
2.632499933,325.6604004,
2.634166718,327.9550171,
2.635833502,329.3944092,
2.637500048,328.837616,
2.639166832,326.2980957,
2.640833378,327.7805176,
2.642500162,326.3327332,
2.644166708,323.8144836,
2.645833254,326.9857178,
2.647500038,324.9099426,
2.649166584,324.8696594,
2.650833368,325.5502014,
2.652500153,326.693512,
2.654166698,324.7621765,
2.655833483,324.6159363,
2.657500029,325.255127,
2.659166813,324.493988,
2.660833597,324.2062988,
2.662499905,324.644104,
2.664166689,325.263855,
2.665833235,327.2190552,
2.667500019,322.6151428,
2.669166803,324.7733459,
2.670833349,324.2230835,
2.672500134,325.6678772,
2.674166679,324.7862244,
2.675833464,325.7663574,
2.677500248,326.2268677,
2.679166555,326.2731018,
2.68083334,324.6839905,
2.682499886,325.8822327,
2.68416667,326.0555115,
2.685833454,326.8314819,
2.6875,326.7709961,
2.689166784,324.5945129,
2.69083333,325.6991272,
2.692500114,323.5935974,
2.694166899,324.4714966,
2.695833445,325.1096497,
2.69749999,324.699646,
2.699166536,325.6666565,
2.700833321,323.0327759,
2.702500105,326.1711731,
2.704166651,324.9261475,
2.705833435,325.4767151,
2.707499981,327.6522217,
2.709166765,325.0400085,
2.710833549,322.1243286,
2.712500095,323.7869263,
2.71416688,324.8537903,
2.715833187,324.0522766,
2.717499971,323.6967773,
2.719166756,325.3917847,
2.720833302,324.2740173,
2.722500086,325.8020325,
2.724166632,327.1436157,
2.725833416,325.0161743,
2.7275002,326.245697,
2.729166746,325.5637512,
2.73083353,324.2219238,
2.732499838,326.2651672,
2.734166622,324.1864014,
2.735833406,327.0046997,
2.737499952,324.1238403,
2.739166737,325.0126343,
2.740833282,324.9100952,
2.742500067,324.3885498,
2.744166851,326.7937622,
2.745833397,325.3753967,
2.747500181,326.4448853,
2.749166727,324.9286804,
2.750833273,327.1259766,
2.752500057,325.1202087,
2.754166603,324.0502014,
2.755833387,324.8033447,
2.757499933,325.7560425,
2.759166718,324.2120972,
2.760833502,326.9267883,
2.762500048,325.1148376,
2.764166832,325.1599121,
2.765833378,325.0177612,
2.767500162,326.3052368,
2.769166708,325.0147095,
2.770833254,326.0578613,
2.772500038,327.6993408,
2.774166584,326.6513977,
2.775833368,324.0259705,
2.777500153,324.3314514,
2.779166698,325.4934998,
2.780833483,324.1432495,
2.782500029,325.4053345,
2.784166813,324.7887268,
2.785833597,324.3916626,
2.787499905,326.9628906,
2.789166689,325.8581543,
2.790833235,324.2612305,
2.792500019,326.9458618,
2.794166803,326.2790222,
2.795833349,324.3482056,
2.797500134,325.0073242,
2.799166679,325.6327209,
2.800833464,324.9659424,
2.802500248,325.0730896,
2.804166555,326.0697937,
2.80583334,325.6039429,
2.807499886,326.0121155,
2.80916667,324.5995789,
2.810833454,327.2276306,
2.8125,326.0032654,
2.814166784,325.485199,
2.81583333,327.5457764,
2.817500114,324.5083618,
2.819166899,325.23526,
2.820833445,325.2304077,
2.82249999,326.559845,
2.824166536,325.3592224,
2.825833321,324.747467,
2.827500105,326.8396606,
2.829166651,326.2735291,
2.830833435,325.5761414,
2.832499981,324.4882507,
2.834166765,324.3622437,
2.835833549,326.3850708,
2.837500095,325.6707764,
2.83916688,327.0654297,
2.840833187,327.55896,
2.842499971,325.3260498,
2.844166756,326.3492126,
2.845833302,324.1367493,
2.847500086,325.8344727,
2.849166632,325.9684143,
2.850833416,325.0003052,
2.8525002,327.1691589,
2.854166746,326.2086182,
2.85583353,327.0078125,
2.857499838,325.870636,
2.859166622,325.967926,
2.860833406,325.4045715,
2.862499952,323.8629456,
2.864166737,324.9619751,
2.865833282,323.3592529,
2.867500067,326.7643127,
2.869166851,324.7789917,
2.870833397,325.6712341,
2.872500181,327.3283386,
2.874166727,326.0421448,
2.875833273,326.1350403,
2.877500057,328.2538452,
2.879166603,326.4090271,
2.880833387,326.0052795,
2.882499933,324.8841553,
2.884166718,325.9165955,
2.885833502,326.570343,

