1,,
Time (min),Intensity (a.u.),
0.0008333333535,269.8510132,
0.002500000177,270.48703,
0.004166666884,270.1469421,
0.005833333358,269.1621399,
0.007500000298,269.2504578,
0.009166667238,271.3349304,
0.01083333418,268.0651245,
0.01250000019,269.095459,
0.01416666713,270.7850037,
0.01583333313,269.5145264,
0.01750000194,269.6787109,
0.01916666701,268.9619751,
0.02083333395,269.7030945,
0.02250000089,268.3870239,
0.02416666783,270.0019531,
0.02583333477,269.0620422,
0.02749999985,268.0658569,
0.02916666679,270.2948914,
0.03083333373,269.2268066,
0.03250000253,269.8236084,
0.03416666761,269.8366394,
0.03583333641,270.1400757,
0.03750000149,267.5076294,
0.03916667029,268.2431641,
0.04083333537,269.5697632,
0.04250000045,269.1446228,
0.04416666925,268.7237244,
0.04583333433,269.2450867,
0.04750000313,269.7583008,
0.04916666821,270.5817566,
0.05083333328,269.2922058,
0.05250000209,269.7848206,
0.05416666716,272.0055542,
0.05583333597,271.1942444,
0.05750000104,269.9470215,
0.05916666612,270.8417969,
0.06083333492,270.6775513,
0.0625,269.3105469,
0.06416667253,269.0487061,
0.0658333376,269.7054749,
0.06750000268,267.8114929,
0.06916666776,269.2640381,
0.07083333284,269.1841431,
0.07249999791,269.7203064,
0.07416667044,269.7264099,
0.07583333552,268.3644409,
0.0775000006,269.6459961,
0.07916666567,268.4994202,
0.08083333075,268.9343567,
0.08250000328,271.2937927,
0.08416666836,269.5726929,
0.08583333343,272.3088989,
0.08749999851,268.7102966,
0.08916666359,272.7121887,
0.09083333611,270.4190369,
0.09250000119,269.9423828,
0.09416666627,271.8372803,
0.09583333135,269.1800842,
0.09749999642,269.5026245,
0.09916666895,272.6026001,
0.100833334,271.1597595,
0.1024999991,269.2846985,
0.1041666642,272.0132751,
0.1058333293,271.4647217,
0.1075000018,274.0207214,
0.1091666669,277.4317932,
0.1108333319,271.2424316,
0.112499997,274.7306213,
0.1141666621,275.3987122,
0.1158333346,271.4466553,
0.1174999997,272.717041,
0.1191666648,273.7971191,
0.1208333299,271.7295837,
0.1224999949,270.9348145,
0.1241666749,270.2451172,
0.1258333325,270.9539185,
0.1274999976,271.8026428,
0.1291666627,271.1806946,
0.1308333278,270.0743713,
0.1325000077,269.9455872,
0.1341666728,271.2166443,
0.1358333379,271.9858704,
0.137500003,268.665802,
0.1391666681,272.6351013,
0.1408333331,269.9913635,
0.1424999982,271.7437439,
0.1441666782,270.1391296,
0.1458333284,271.1105042,
0.1475000083,271.5210266,
0.1491666585,272.0952454,
0.1508333385,272.7312927,
0.1525000036,273.5943298,
0.1541666687,273.1143494,
0.1558333337,270.4961853,
0.1574999988,271.692749,
0.1591666639,269.3868408,
0.1608333439,269.444397,
0.162499994,271.0588074,
0.164166674,272.0476074,
0.1658333242,270.8170166,
0.1675000042,270.0063477,
0.1691666692,271.3604431,
0.1708333343,269.3501282,
0.1724999994,271.1469421,
0.1741666645,269.5807495,
0.1758333296,270.6143799,
0.1775000095,269.8001404,
0.1791666597,269.988739,
0.1808333397,269.5336609,
0.1824999899,268.45047,
0.1841666698,268.6595764,
0.1858333498,269.4479675,
0.1875,269.8504028,
0.18916668,272.2680054,
0.1908333302,270.0828857,
0.1925000101,269.7841492,
0.1941666752,268.7905579,
0.1958333403,270.5317078,
0.1975000054,270.6535034,
0.1991666704,270.9795532,
0.2008333355,271.2546387,
0.2025000155,267.2106628,
0.2041666657,269.0340881,
0.2058333457,271.8100891,
0.2074999958,271.1887512,
0.2091666758,270.9486084,
0.2108333409,271.6256409,
0.212500006,270.8682251,
0.214166671,273.1652832,
0.2158333361,272.9803467,
0.2175000012,270.0356445,
0.2191666812,269.4074707,
0.2208333313,270.6775513,
0.2225000113,269.750824,
0.2241666615,268.3216553,
0.2258333415,269.6455994,
0.2275000066,269.5475769,
0.2291666716,269.6290894,
0.2308333367,270.5983582,
0.2325000018,268.5625305,
0.2341666669,270.474762,
0.2358333468,270.3161621,
0.237499997,270.5733337,
0.239166677,269.9126892,
0.2408333272,269.3069153,
0.2425000072,270.7301025,
0.2441666722,268.9660339,
0.2458333373,270.6687622,
0.2475000024,270.7122192,
0.2491666675,270.8553467,
0.2508333325,269.3560486,
0.2524999976,270.7677307,
0.2541666627,269.8977356,
0.2558333278,269.4274597,
0.2574999928,270.0086975,
0.2591666579,269.7960205,
0.2608333528,270.5222473,
0.2624999881,272.6879272,
0.264166683,270.8444824,
0.2658333182,271.4306335,
0.2675000131,273.9031677,
0.2691666484,271.7159424,
0.2708333433,270.6867981,
0.2725000083,272.8930664,
0.2741666734,270.8731079,
0.2758333385,273.0143433,
0.2775000036,273.5465698,
0.2791666687,272.1791992,
0.2808333337,271.7914734,
0.2824999988,270.7197876,
0.2841666937,272.0698853,
0.285833329,268.6141968,
0.287499994,274.635437,
0.2891666591,271.7049866,
0.290833354,274.3074951,
0.2925000191,271.1570129,
0.2941666543,273.3594971,
0.2958333194,271.1616211,
0.2975000143,271.4632568,
0.2991666794,272.0899658,
0.3008333445,271.1508484,
0.3024999797,272.7123718,
0.3041666746,272.3624573,
0.3058333397,269.7541199,
0.3075000048,272.2398682,
0.3091666996,274.0727844,
0.3108333349,272.9570618,
0.3125,273.621521,
0.3141666651,270.4352722,
0.31583336,275.8196106,
0.317500025,270.4573059,
0.3191666603,270.4771118,
0.3208333254,273.7459106,
0.3225000203,270.6115112,
0.3241666853,269.9524231,
0.3258333504,270.6625977,
0.3274999857,271.0739136,
0.3291666806,273.6324768,
0.3308333457,273.2891846,
0.3325000107,274.3690796,
0.3341666758,272.5516052,
0.3358333409,273.8992615,
0.337500006,271.1914673,
0.339166671,270.668335,
0.3408333361,273.1287842,
0.342500031,275.0112915,
0.3441666663,271.8944092,
0.3458333313,268.9373169,
0.3474999964,274.8354797,
0.3491666913,272.1668091,
0.3508333564,272.5285645,
0.3524999917,273.704895,
0.3541666567,274.9042358,
0.3558333516,271.3267822,
0.3575000167,273.4889526,
0.3591666818,271.1798096,
0.360833317,273.4995117,
0.3625000119,271.6582947,
0.364166677,272.3591614,
0.3658333421,270.2882996,
0.3675000072,268.9083557,
0.3691666722,272.1460876,
0.3708333373,271.7023315,
0.3725000024,270.6806946,
0.3741666675,273.1465759,
0.3758333623,270.9815979,
0.3774999976,270.9199829,
0.3791666627,270.0796814,
0.3808333278,269.9004211,
0.3825000226,270.4613953,
0.3841666877,270.040802,
0.385833323,272.1042786,
0.3874999881,269.986145,
0.389166683,270.2924805,
0.390833348,269.181366,
0.3925000131,271.0832214,
0.3941666484,272.3100586,
0.3958333433,272.195343,
0.3975000083,271.0412292,
0.3991666734,274.0534668,
0.4008333385,270.9418945,
0.4025000036,268.8459167,
0.4041666687,272.7972412,
0.4058333337,270.6419678,
0.4074999988,269.0299683,
0.4091666937,269.9612427,
0.410833329,270.0539246,
0.412499994,270.0438538,
0.4141666591,273.4855042,
0.415833354,271.1462097,
0.4175000191,272.8972168,
0.4191666543,271.1344604,
0.4208333194,273.9424744,
0.4225000143,275.0987854,
0.4241666794,275.9505005,
0.4258333445,271.7416992,
0.4274999797,270.7884216,
0.4291666746,268.7728271,
0.4308333397,271.2550964,
0.4325000048,270.5927124,
0.4341666996,272.7174072,
0.4358333349,274.1808777,
0.4375,273.1012573,
0.4391666651,272.1875916,
0.44083336,273.8928223,
0.442500025,273.3193665,
0.4441666603,272.8508911,
0.4458333254,270.4560852,
0.4475000203,270.3332825,
0.4491666853,273.5993042,
0.4508333504,271.0486145,
0.4524999857,273.1719666,
0.4541666806,271.223053,
0.4558333457,270.6856995,
0.4575000107,275.4181519,
0.4591666758,271.5030212,
0.4608333409,269.1178284,
0.462500006,270.5604858,
0.464166671,272.9546814,
0.4658333361,270.5297852,
0.467500031,272.6394348,
0.4691666663,274.4216919,
0.4708333313,275.1111145,
0.4724999964,271.247406,
0.4741666913,271.5425415,
0.4758333564,270.9537048,
0.4774999917,269.7746277,
0.4791666567,269.4322815,
0.4808333516,268.974823,
0.4825000167,269.9037476,
0.4841666818,271.507843,
0.485833317,271.1148682,
0.4875000119,271.3977661,
0.489166677,270.0005493,
0.4908333421,271.5860901,
0.4925000072,270.991394,
0.4941666722,269.9909973,
0.4958333373,271.4187317,
0.4975000024,272.4230042,
0.4991666675,271.071106,
0.5008333325,269.6631165,
0.5024999976,269.4994812,
0.5041666627,268.352478,
0.5058333278,271.374115,
0.5074999928,269.8288879,
0.5091666579,269.9803467,
0.510833323,270.0379639,
0.5124999881,269.2331238,
0.5141666532,271.8366699,
0.5158333182,272.5800171,
0.5175000429,271.2254944,
0.5191666484,271.1913757,
0.5208333135,270.572876,
0.5224999785,270.6543884,
0.5241667032,270.9276733,
0.5258333683,270.0209656,
0.5274999738,270.1389465,
0.5291666389,269.7086182,
0.5308333635,269.9544373,
0.5325000286,268.4082031,
0.5341666341,268.1235352,
0.5358333588,269.7514343,
0.5375000238,272.6633301,
0.5391666889,270.634491,
0.540833354,272.7014465,
0.5424999595,266.6225586,
0.5441666842,271.4030151,
0.5458333492,271.2531128,
0.5475000143,272.3164063,
0.5491666794,269.5986023,
0.5508333445,271.5002136,
0.5525000095,271.0858765,
0.5541666746,272.2183228,
0.5558333993,272.2755432,
0.5575000048,270.3201599,
0.5591666698,270.8623657,
0.5608333349,272.1947021,
0.5625,271.3474121,
0.5641667247,273.6063538,
0.5658333302,274.4837952,
0.5674999952,269.6038818,
0.5691667199,270.433136,
0.5708333254,270.9319153,
0.5725000501,273.6542969,
0.5741666555,271.493866,
0.5758333206,269.9216614,
0.5775000453,272.7102051,
0.5791666508,271.1639404,
0.5808333755,274.0620422,
0.5825000405,269.8181763,
0.584166646,272.2840271,
0.5858333707,269.2650146,
0.5874999762,268.7966003,
0.5891667008,270.8168335,
0.5908333659,271.1262512,
0.5924999714,268.4002075,
0.5941666961,269.8226929,
0.5958333611,268.8892822,
0.5975000262,271.5899963,
0.5991666913,272.7523804,
0.6008332968,270.1137085,
0.6025000215,268.478241,
0.6041666865,268.9510193,
0.6058333516,271.7076416,
0.6075000167,271.9868164,
0.6091666818,272.2318726,
0.6108333468,270.7909851,
0.6125000119,269.0505066,
0.614166677,269.7944336,
0.6158333421,271.513855,
0.6175000072,274.3388367,
0.6191666722,269.7666626,
0.6208333373,269.6224365,
0.622500062,269.6910706,
0.6241666675,269.9277344,
0.6258333325,271.8053894,
0.6274999976,274.7319641,
0.6291666627,271.7383728,
0.6308333874,268.345459,
0.6324999928,268.7019653,
0.6341666579,270.1884766,
0.6358333826,270.0018921,
0.6374999881,268.772583,
0.6391667128,267.1425476,
0.6408333182,268.344635,
0.6424999833,267.9747009,
0.644166708,269.0472107,
0.6458333135,269.09375,
0.6475000381,268.5845032,
0.6491667032,268.6645203,
0.6508333087,267.9094238,
0.6525000334,269.3305054,
0.6541666389,267.7044373,
0.6558333635,269.8969421,
0.6575000286,269.8275146,
0.6591666341,267.9554443,
0.6608333588,268.3137207,
0.6625000238,268.151886,
0.6641666889,268.2051086,
0.665833354,268.8908691,
0.6674999595,268.0577087,
0.6691666842,269.3615723,
0.6708333492,270.1031189,
0.6725000143,267.3228455,
0.6741666794,268.1940918,
0.6758333445,269.2114563,
0.6775000095,268.6755066,
0.6791666746,268.8537598,
0.6808333993,268.210968,
0.6825000048,269.6785583,
0.6841666698,268.9798279,
0.6858333349,269.2813721,
0.6875,269.2664185,
0.6891667247,269.9778442,
0.6908333302,269.7593079,
0.6924999952,269.6202698,
0.6941667199,269.3497314,
0.6958333254,269.307251,
0.6975000501,270.4421692,
0.6991666555,270.8805542,
0.7008333206,269.5851746,
0.7025000453,270.175354,
0.7041666508,268.6862793,
0.7058333755,272.6994019,
0.7075000405,268.3162231,
0.709166646,271.2237854,
0.7108333707,272.0650024,
0.7124999762,268.3840942,
0.7141667008,271.8082886,
0.7158333659,269.8130798,
0.7174999714,270.8167725,
0.7191666961,269.3602905,
0.7208333611,274.1635742,
0.7225000262,270.781311,
0.7241666913,270.3595581,
0.7258332968,270.9955139,
0.7275000215,270.4066162,
0.7291666865,268.6424255,
0.7308333516,270.2515259,
0.7325000167,270.169342,
0.7341666818,270.8833008,
0.7358333468,273.2331238,
0.7375000119,272.3561096,
0.739166677,272.3666687,
0.7408333421,270.5601196,
0.7425000072,269.3879395,
0.7441666722,270.3514709,
0.7458333373,269.5102844,
0.747500062,270.3506165,
0.7491666675,271.5484924,
0.7508333325,271.9046936,
0.7524999976,270.5509338,
0.7541666627,273.9394836,
0.7558333874,272.6880188,
0.7574999928,271.6128235,
0.7591666579,271.3883667,
0.7608333826,268.9743958,
0.7624999881,270.7512817,
0.7641667128,269.707489,
0.7658333182,271.3110046,
0.7674999833,270.1085205,
0.769166708,267.6500854,
0.7708333135,269.7405396,
0.7725000381,269.6360474,
0.7741667032,269.6805115,
0.7758333087,271.5990601,
0.7775000334,269.8431091,
0.7791666389,271.4701843,
0.7808333635,271.9229126,
0.7825000286,268.7450562,
0.7841666341,272.4556885,
0.7858333588,269.6885071,
0.7875000238,272.3517456,
0.7891666889,270.1708679,
0.790833354,271.3705139,
0.7924999595,271.1366882,
0.7941666842,275.8598022,
0.7958333492,269.7909851,
0.7975000143,272.9078979,
0.7991666794,272.0827332,
0.8008333445,271.7677917,
0.8025000095,271.4409485,
0.8041666746,272.9660034,
0.8058333993,271.0811157,
0.8075000048,271.4779358,
0.8091666698,271.0809326,
0.8108333349,271.3952942,
0.8125,270.6751099,
0.8141667247,271.9438782,
0.8158333302,273.1265869,
0.8174999952,270.1485596,
0.8191667199,268.204895,
0.8208333254,270.8710938,
0.8225000501,272.7608337,
0.8241666555,271.1472473,
0.8258333206,272.7903137,
0.8275000453,272.3089905,
0.8291666508,270.9242554,
0.8308333755,271.985199,
0.8325000405,272.3974609,
0.834166646,273.9194641,
0.8358333707,269.3799133,
0.8374999762,270.3476257,
0.8391667008,268.3368225,
0.8408333659,270.7356567,
0.8424999714,268.9508972,
0.8441666961,270.6871033,
0.8458333611,270.8569031,
0.8475000262,268.6470032,
0.8491666913,270.4296875,
0.8508332968,272.9633484,
0.8525000215,270.6734619,
0.8541666865,271.0099487,
0.8558333516,271.6817627,
0.8575000167,273.348938,
0.8591666818,271.7730408,
0.8608333468,268.7211914,
0.8625000119,271.8174744,
0.864166677,273.2230835,
0.8658333421,272.294342,
0.8675000072,270.4098206,
0.8691666722,269.9938965,
0.8708333373,269.2064514,
0.872500062,271.5037537,
0.8741666675,269.9057922,
0.8758333325,269.041748,
0.8774999976,270.4957581,
0.8791666627,269.8043823,
0.8808333874,271.6782837,
0.8824999928,270.4554443,
0.8841666579,269.5392761,
0.8858333826,271.0183411,
0.8874999881,271.5777283,
0.8891667128,269.9310303,
0.8908333182,269.6905518,
0.8924999833,271.6700134,
0.894166708,268.6835022,
0.8958333135,270.1284485,
0.8975000381,272.796936,
0.8991667032,272.2539978,
0.9008333087,269.2384033,
0.9025000334,271.9967346,
0.9041666389,270.3128662,
0.9058333635,270.5593872,
0.9075000286,270.8241577,
0.9091666341,269.5935059,
0.9108333588,271.0069275,
0.9125000238,269.6233521,
0.9141666889,270.5274963,
0.915833354,271.0623169,
0.9174999595,272.6154785,
0.9191666842,271.0181274,
0.9208333492,271.7026367,
0.9225000143,269.1376953,
0.9241666794,271.8314514,
0.9258333445,270.4099731,
0.9275000095,272.7489624,
0.9291666746,271.1859131,
0.9308333993,269.1273499,
0.9325000048,271.2717285,
0.9341666698,271.6190186,
0.9358333349,272.3730774,
0.9375,271.6542358,
0.9391667247,272.9367065,
0.9408333302,272.5913086,
0.9424999952,269.9051514,
0.9441667199,270.7850647,
0.9458333254,270.2547607,
0.9475000501,270.5516052,
0.9491666555,270.1654663,
0.9508333206,271.4917603,
0.9525000453,270.6963501,
0.9541666508,267.4597473,
0.9558333755,266.7131653,
0.9575000405,269.478302,
0.959166646,269.1245728,
0.9608333707,269.2095642,
0.9624999762,267.5520935,
0.9641667008,268.0983276,
0.9658333659,271.2796631,
0.9674999714,270.0592346,
0.9691666961,269.8119202,
0.9708333611,271.6330261,
0.9725000262,271.434021,
0.9741666913,272.1143188,
0.9758332968,269.9580994,
0.9775000215,271.4985657,
0.9791666865,274.5162659,
0.9808333516,268.9753113,
0.9825000167,272.0707397,
0.9841666818,270.1509399,
0.9858333468,269.7054443,
0.9875000119,271.0285645,
0.989166677,270.143158,
0.9908333421,270.6982117,
0.9925000072,269.6216431,
0.9941666722,271.1903381,
0.9958333373,269.2289124,
0.997500062,269.3763733,
0.9991666675,270.5707092,
1.000833273,270.7931213,
1.002500057,269.9473267,
1.004166722,270.2665405,
1.005833387,269.2989502,
1.007500052,270.3287964,
1.009166598,269.1988831,
1.010833383,269.6410828,
1.012500048,270.5079346,
1.014166713,272.3901367,
1.015833378,269.3759155,
1.017500043,270.3924866,
1.019166708,271.3301086,
1.020833373,270.4408264,
1.022500038,270.7197876,
1.024166703,270.9074402,
1.025833368,269.0562439,
1.027500033,268.752655,
1.029166698,269.7653503,
1.030833364,268.4793701,
1.032500029,270.6628113,
1.034166694,271.762207,
1.035833359,268.9586792,
1.037500024,268.7453308,
1.039166689,271.9469299,
1.040833354,268.7255249,
1.042500019,270.1187134,
1.044166684,269.2843323,
1.045833349,268.6607056,
1.047500014,271.4040833,
1.049166679,270.3997192,
1.050833344,271.2723083,
1.05250001,270.2894287,
1.054166675,269.2614441,
1.05583334,271.6039429,
1.057500005,272.7238159,
1.05916667,268.8687134,
1.060833335,271.8404236,
1.0625,270.4356995,
1.064166665,270.9333191,
1.06583333,270.3058777,
1.067499995,273.2442932,
1.06916666,271.9178467,
1.070833325,272.2276306,
1.07249999,270.8212891,
1.074166775,270.9307251,
1.07583344,270.051178,
1.077499986,270.2503052,
1.079166651,273.0690918,
1.080833316,271.3390198,
1.0825001,270.1214905,
1.084166765,272.4857788,
1.085833311,271.8988037,
1.087499976,270.8770752,
1.089166641,269.3466187,
1.090833426,272.069397,
1.092500091,270.2214966,
1.094166636,269.375061,
1.095833302,270.000061,
1.097499967,270.408844,
1.099166751,269.5890808,
1.100833416,270.3790588,
1.102500081,268.9830322,
1.104166627,269.4695435,
1.105833292,270.0275269,
1.107500076,272.6827393,
1.109166741,269.8673096,
1.110833406,271.5383606,
1.112499952,271.8909607,
1.114166617,268.8146973,
1.115833402,270.4751282,
1.117500067,273.7326355,
1.119166732,272.5487671,
1.120833278,268.2685242,
1.122499943,272.5594788,
1.124166727,270.5376587,
1.125833392,272.6333008,
1.127500057,274.1261597,
1.129166722,270.3378906,
1.130833268,271.2921448,
1.132500052,272.7127075,
1.134166718,268.3950195,
1.135833383,272.0832214,
1.137500048,268.7281799,
1.139166594,268.9816895,
1.140833378,271.0131226,
1.142500043,271.3053894,
1.144166708,270.3984985,
1.145833373,271.2421875,
1.147499919,270.5193176,
1.149166703,269.526947,
1.150833368,270.8994446,
1.152500033,270.1859436,
1.154166698,271.247406,
1.155833364,269.4312439,
1.157500029,270.2606506,
1.159166694,269.4324036,
1.160833359,270.1055908,
1.162500024,272.087738,
1.164166689,270.6282349,
1.165833354,272.0342712,
1.167500019,268.386261,
1.169166684,269.1091309,
1.170833349,270.6802368,
1.172500014,269.5664673,
1.174166799,272.6973267,
1.175833344,271.6594543,
1.17750001,271.1557922,
1.179166675,269.1083984,
1.18083334,269.8752441,
1.182500124,272.0492554,
1.18416667,270.381134,
1.185833335,270.1062317,
1.1875,269.3778687,
1.189166665,271.0722656,
1.190833449,271.2857666,
1.192499995,270.352478,
1.19416666,270.4406128,
1.195833325,270.1373291,
1.19749999,270.4140015,
1.199166775,272.7713928,
1.20083344,273.1787415,
1.202499986,269.7735596,
1.204166651,268.7814941,
1.205833316,267.7505798,
1.2075001,270.6257324,
1.209166765,270.849762,
1.210833311,268.6494141,
1.212499976,271.6170959,
1.214166641,269.6641235,
1.215833426,270.6954651,
1.217500091,271.6193848,
1.219166636,270.1860962,
1.220833302,272.2038879,
1.222499967,272.3999329,
1.224166751,269.5857544,
1.225833416,271.7328186,
1.227500081,271.7843628,
1.229166627,272.1600647,
1.230833292,271.3118896,
1.232500076,273.1132507,
1.234166741,270.0290222,
1.235833406,269.0614319,
1.237499952,269.609314,
1.239166617,270.0800476,
1.240833402,271.2845764,
1.242500067,270.9819031,
1.244166732,271.0317688,
1.245833278,272.399292,
1.247499943,272.7546387,
1.249166727,269.7450867,
1.250833392,272.1997681,
1.252500057,271.1385193,
1.254166722,272.7175293,
1.255833268,271.1269836,
1.257500052,269.9744873,
1.259166718,271.5493469,
1.260833383,271.6807251,
1.262500048,270.5114136,
1.264166594,270.7319641,
1.265833378,270.3219604,
1.267500043,271.5228577,
1.269166708,271.1122131,
1.270833373,272.5353699,
1.272499919,270.4755554,
1.274166703,271.7085876,
1.275833368,270.8262939,
1.277500033,273.3071289,
1.279166698,274.313324,
1.280833364,271.4926453,
1.282500029,272.8293762,
1.284166694,269.3825989,
1.285833359,268.87323,
1.287500024,270.1262512,
1.289166689,270.1100159,
1.290833354,267.5211487,
1.292500019,269.6823425,
1.294166684,268.9662781,
1.295833349,269.1690369,
1.297500014,269.2537537,
1.299166799,269.1077271,
1.300833344,268.2445374,
1.30250001,267.8479919,
1.304166675,271.2230835,
1.30583334,271.2154846,
1.307500124,270.9719543,
1.30916667,270.3526917,
1.310833335,269.6463318,
1.3125,269.815033,
1.314166665,269.6567993,
1.315833449,269.6532288,
1.317499995,268.9822083,
1.31916666,269.0225525,
1.320833325,270.1601257,
1.32249999,270.3921814,
1.324166775,271.5101318,
1.32583344,270.7026062,
1.327499986,270.8654785,
1.329166651,269.5124512,
1.330833316,270.4288635,
1.3325001,268.24646,
1.334166765,268.1958618,
1.335833311,268.3339539,
1.337499976,269.2257996,
1.339166641,268.2353516,
1.340833426,268.4936523,
1.342500091,270.3846436,
1.344166636,269.6485901,
1.345833302,270.5643311,
1.347499967,269.4426575,
1.349166751,268.071228,
1.350833416,268.4631348,
1.352500081,270.2122192,
1.354166627,270.1739807,
1.355833292,267.9181213,
1.357500076,269.0031433,
1.359166741,269.1749878,
1.360833406,269.0688782,
1.362499952,269.4086304,
1.364166617,270.3507996,
1.365833402,272.1637573,
1.367500067,271.3269653,
1.369166732,271.0926819,
1.370833278,271.2018738,
1.372499943,273.2085571,
1.374166727,271.0539856,
1.375833392,271.6268921,
1.377500057,270.4750061,
1.379166722,269.776825,
1.380833268,273.37677,
1.382500052,272.1727905,
1.384166718,271.0316162,
1.385833383,269.656311,
1.387500048,270.1541748,
1.389166594,271.6674805,
1.390833378,269.2612915,
1.392500043,271.5600281,
1.394166708,268.8870544,
1.395833373,268.538269,
1.397499919,272.4718933,
1.399166703,270.1846619,
1.400833368,270.4007874,
1.402500033,270.9924316,
1.404166698,270.3512268,
1.405833364,270.0269165,
1.407500029,270.7496033,
1.409166694,269.8760071,
1.410833359,270.2406006,
1.412500024,270.2626648,
1.414166689,270.8262024,
1.415833354,270.5105591,
1.417500019,267.6502075,
1.419166684,269.6506958,
1.420833349,268.4629822,
1.422500014,268.1647339,
1.424166799,268.5558777,
1.425833344,269.3565979,
1.42750001,270.1744385,
1.429166675,269.3642578,
1.43083334,270.7890625,
1.432500124,270.6950684,
1.43416667,269.8622437,
1.435833335,268.9880676,
1.4375,271.7403564,
1.439166665,273.7552795,
1.440833449,270.1390686,
1.442499995,272.7485046,
1.44416666,269.0476379,
1.445833325,271.68573,
1.44749999,272.1641235,
1.449166775,271.9381104,
1.45083344,271.3552856,
1.452499986,271.6031189,
1.454166651,272.0541382,
1.455833316,270.3500671,
1.4575001,270.4204712,
1.459166765,271.9244995,
1.460833311,272.8535156,
1.462499976,268.3060913,
1.464166641,269.4272156,
1.465833426,271.1647644,
1.467500091,268.7390747,
1.469166636,271.291626,
1.470833302,271.8602905,
1.472499967,270.1291199,
1.474166751,269.0091248,
1.475833416,269.8823242,
1.477500081,271.5916748,
1.479166627,269.6497498,
1.480833292,271.6226196,
1.482500076,270.8824158,
1.484166741,273.0554199,
1.485833406,269.0257263,
1.487499952,270.9853516,
1.489166617,264.3341675,
1.490833402,268.7897644,
1.492500067,267.9255676,
1.494166732,270.3435364,
1.495833278,271.2632446,
1.497499943,271.4769592,
1.499166727,269.0263977,
1.500833392,268.5699768,
1.502500057,269.4995422,
1.504166722,270.0238647,
1.505833268,274.1482849,
1.507500052,269.4394836,
1.509166718,267.7492065,
1.510833383,269.6177673,
1.512500048,271.0636902,
1.514166594,269.4563599,
1.515833378,270.5846558,
1.517500043,270.3677063,
1.519166708,270.5032349,
1.520833373,271.0074158,
1.522499919,271.4656982,
1.524166703,268.0070496,
1.525833368,270.116394,
1.527500033,271.2743835,
1.529166698,268.2718201,
1.530833364,269.6086121,
1.532500029,271.967926,
1.534166694,269.8491821,
1.535833359,268.9042969,
1.537500024,270.3932495,
1.539166689,269.8741455,
1.540833354,270.0444031,
1.542500019,269.4356079,
1.544166684,270.5924377,
1.545833349,269.2119751,
1.547500014,267.1373596,
1.549166799,269.4273987,
1.550833344,269.1256104,
1.55250001,270.6669312,
1.554166675,270.3050537,
1.55583334,269.8318481,
1.557500124,267.5682373,
1.55916667,235.4053192,
1.560833335,234.2418365,
1.5625,228.6312561,
1.564166665,208.3410492,
1.565833449,222.4307404,
1.567499995,254.1079254,
1.56916666,220.3234253,
1.570833325,256.9712524,
1.57249999,233.0848083,
1.574166775,265.4449158,
1.57583344,230.3340302,
1.577499986,257.4480591,
1.579166651,235.0684357,
1.580833316,239.49263,
1.5825001,243.5374298,
1.584166765,274.1896362,
1.585833311,269.6013794,
1.587499976,271.2692566,
1.589166641,270.1038818,
1.590833426,271.3335876,
1.592500091,271.0275269,
1.594166636,272.8565369,
1.595833302,273.8788452,
1.597499967,273.62854,
1.599166751,274.5570679,
1.600833416,273.1888428,
1.602500081,273.5441284,
1.604166627,276.3479614,
1.605833292,274.3986816,
1.607500076,277.7014771,
1.609166741,276.1850281,
1.610833406,275.7483521,
1.612499952,276.0093689,
1.614166617,277.8312073,
1.615833402,278.451355,
1.617500067,277.8965759,
1.619166732,277.7731628,
1.620833278,277.1438293,
1.622499943,275.675293,
1.624166727,276.9546814,
1.625833392,281.6210938,
1.627500057,277.65979,
1.629166722,282.0549316,
1.630833268,280.4054871,
1.632500052,280.8408813,
1.634166718,279.7419434,
1.635833383,280.9830627,
1.637500048,282.7134399,
1.639166594,283.8423157,
1.640833378,282.4225159,
1.642500043,282.7605896,
1.644166708,283.4189453,
1.645833373,282.5627136,
1.647499919,283.137085,
1.649166703,288.9133911,
1.650833368,286.2142639,
1.652500033,284.2593689,
1.654166698,286.1145325,
1.655833364,282.7208252,
1.657500029,283.5856018,
1.659166694,284.6875,
1.660833359,285.5906067,
1.662500024,285.5210571,
1.664166689,285.2607727,
1.665833354,285.2391052,
1.667500019,286.2839355,
1.669166684,288.9013672,
1.670833349,285.8678284,
1.672500014,288.1708679,
1.674166799,287.8396912,
1.675833344,286.0237122,
1.67750001,285.1936646,
1.679166675,284.7583313,
1.68083334,289.0648804,
1.682500124,287.4315186,
1.68416667,288.3163147,
1.685833335,290.4120178,
1.6875,287.5145264,
1.689166665,290.9428406,
1.690833449,287.9161987,
1.692499995,288.129303,
1.69416666,288.4923096,
1.695833325,289.1454163,
1.69749999,287.9021301,
1.699166775,287.2433167,
1.70083344,287.0169983,
1.702499986,291.3970947,
1.704166651,287.7051086,
1.705833316,289.1724854,
1.7075001,287.0968628,
1.709166765,287.1404114,
1.710833311,288.6057739,
1.712499976,286.8408508,
1.714166641,291.2029114,
1.715833426,290.1538391,
1.717500091,288.0391846,
1.719166636,288.223938,
1.720833302,290.4740295,
1.722499967,288.21875,
1.724166751,289.0296631,
1.725833416,288.8319397,
1.727500081,286.5323792,
1.729166627,289.3955383,
1.730833292,289.4897766,
1.732500076,289.7074585,
1.734166741,289.593811,
1.735833406,291.0643311,
1.737499952,288.4814758,
1.739166617,289.3807678,
1.740833402,289.7990417,
1.742500067,288.8929749,
1.744166732,289.4174194,
1.745833278,291.0452576,
1.747499943,288.0088501,
1.749166727,290.4122925,
1.750833392,287.2835693,
1.752500057,287.6787109,
1.754166722,291.1212463,
1.755833268,290.7949829,
1.757500052,290.9848938,
1.759166718,288.6304016,
1.760833383,289.4806519,
1.762500048,291.1448059,
1.764166594,291.1525269,
1.765833378,291.0768127,
1.767500043,289.3634033,
1.769166708,291.3455811,
1.770833373,292.1905823,
1.772499919,291.6037903,
1.774166703,291.71875,
1.775833368,292.1929321,
1.777500033,290.0216675,
1.779166698,291.8972168,
1.780833364,291.6541138,
1.782500029,290.4840698,
1.784166694,289.8915405,
1.785833359,289.6799927,
1.787500024,291.2997131,
1.789166689,291.4822693,
1.790833354,291.6208496,
1.792500019,292.9857788,
1.794166684,290.1104431,
1.795833349,291.5244446,
1.797500014,291.2328186,
1.799166799,290.66922,
1.800833344,290.6404419,
1.80250001,291.9585876,
1.804166675,292.1420288,
1.80583334,292.7492371,
1.807500124,292.5992432,
1.80916667,291.1578064,
1.810833335,291.2518005,
1.8125,292.0944824,
1.814166665,293.3229065,
1.815833449,292.3983154,
1.817499995,292.8417969,
1.81916666,292.9967957,
1.820833325,295.2086182,
1.82249999,295.2676086,
1.824166775,295.7250366,
1.82583344,294.1938171,
1.827499986,292.8988342,
1.829166651,293.7631226,
1.830833316,292.824646,
1.8325001,292.4062805,
1.834166765,292.8774414,
1.835833311,293.5827942,
1.837499976,293.2843933,
1.839166641,293.8300781,
1.840833426,291.1018372,
1.842500091,291.2897644,
1.844166636,292.2754211,
1.845833302,295.8822937,
1.847499967,292.598999,
1.849166751,292.6185608,
1.850833416,293.6188965,
1.852500081,293.0967407,
1.854166627,295.5903625,
1.855833292,294.1904297,
1.857500076,292.9367065,
1.859166741,292.6968079,
1.860833406,295.3012085,
1.862499952,294.3414307,
1.864166617,294.9113464,
1.865833402,292.874939,
1.867500067,292.4231262,
1.869166732,293.6089783,
1.870833278,293.7844238,
1.872499943,294.2060852,
1.874166727,295.6491089,
1.875833392,292.9949646,
1.877500057,291.8536377,
1.879166722,293.4885254,
1.880833268,293.9780579,
1.882500052,293.9502258,
1.884166718,294.8560791,
1.885833383,295.0255127,
1.887500048,293.5555725,
1.889166594,292.7687988,
1.890833378,294.8369751,
1.892500043,293.5266724,
1.894166708,296.3030396,
1.895833373,294.5204773,
1.897499919,299.5196228,
1.899166703,296.407196,
1.900833368,295.868927,
1.902500033,295.9720764,
1.904166698,295.8001404,
1.905833364,296.2258301,
1.907500029,296.5809631,
1.909166694,294.3347778,
1.910833359,295.0858154,
1.912500024,295.9415283,
1.914166689,295.0140686,
1.915833354,296.6407776,
1.917500019,296.2105713,
1.919166684,298.1722717,
1.920833349,293.3750916,
1.922500014,296.7218018,
1.924166799,299.4483643,
1.925833344,295.0032349,
1.92750001,294.2563477,
1.929166675,293.5339355,
1.93083334,294.4476013,
1.932500124,293.6132202,
1.93416667,293.7981567,
1.935833335,293.97229,
1.9375,297.7395325,
1.939166665,293.8242493,
1.940833449,295.0969849,
1.942499995,294.6871643,
1.94416666,294.8168335,
1.945833325,292.7307739,
1.94749999,298.9839478,
1.949166775,296.540802,
1.95083344,296.916626,
1.952499986,293.8429565,
1.954166651,296.1091003,
1.955833316,293.4770813,
1.9575001,294.1296387,
1.959166765,293.7320862,
1.960833311,295.70047,
1.962499976,294.9219971,
1.964166641,295.4079895,
1.965833426,296.5255127,
1.967500091,295.4284058,
1.969166636,295.8518677,
1.970833302,296.4472046,
1.972499967,297.6690369,
1.974166751,295.2677002,
1.975833416,294.4196472,
1.977500081,294.493042,
1.979166627,294.6974792,
1.980833292,294.2961121,
1.982500076,294.472168,
1.984166741,295.1361084,
1.985833406,295.2108459,
1.987499952,294.3575134,
1.989166617,289.4934692,
1.990833402,296.1948242,
1.992500067,291.9750977,
1.994166732,295.1866455,
1.995833278,296.0050964,
1.997499943,295.8253174,
1.999166727,295.5679321,
2.000833273,294.2229919,
2.002500057,296.9752197,
2.004166603,295.4993896,
2.005833387,295.0492554,
2.007500172,297.7113342,
2.009166718,297.0697021,
2.010833263,295.1299744,
2.012500048,295.4988708,
2.014166594,295.0181274,
2.015833378,296.159668,
2.017500162,295.8239746,
2.019166708,295.3781128,
2.020833254,296.4335022,
2.022500038,294.977356,
2.024166822,295.8565063,
2.025833368,296.037262,
2.027499914,296.238739,
2.029166698,295.5710449,
2.030833244,294.8565674,
2.032500029,294.830658,
2.034166813,295.4338074,
2.035833359,296.9533386,
2.037499905,296.9942932,
2.039166689,297.0777893,
2.040833473,295.5207825,
2.042500019,295.1528625,
2.044166803,296.8781128,
2.045833349,295.5120239,
2.047499895,295.3916931,
2.049166679,296.8851929,
2.050833464,296.0662842,
2.05250001,294.1619263,
2.054166555,296.2158508,
2.05583334,293.6968689,
2.057500124,296.5925598,
2.05916667,296.7355347,
2.060833454,297.5581665,
2.0625,296.9005432,
2.064166546,297.328125,
2.06583333,294.0259094,
2.067500114,296.9400024,
2.06916666,295.980011,
2.070833445,295.4240112,
2.07249999,298.1496582,
2.074166775,295.8011169,
2.075833321,295.3850403,
2.077500105,295.6437683,
2.079166651,296.8341064,
2.080833197,296.8811035,
2.082499981,296.2410583,
2.084166765,297.8804932,
2.085833311,295.1637878,
2.087500095,295.3769836,
2.089166641,297.2615662,
2.090833426,295.7662964,
2.092499971,296.1161499,
2.094166756,297.4138184,
2.095833302,300.8312988,
2.097500086,296.4969482,
2.099166632,297.9571533,
2.100833416,294.4959717,
2.102499962,297.3968201,
2.104166746,298.5808105,
2.105833292,296.3689575,
2.107500076,297.8049316,
2.109166622,296.6428833,
2.110833406,295.5504761,
2.112499952,297.050415,
2.114166737,297.1813049,
2.115833521,295.9982605,
2.117500067,298.4737549,
2.119166613,295.4735413,
2.120833397,297.0597229,
2.122499943,297.1757813,
2.124166727,298.5048523,
2.125833273,297.0053711,
2.127500057,296.5986938,
2.129166603,295.0058289,
2.130833387,296.4937134,
2.132500172,297.7929382,
2.134166718,296.815033,
2.135833502,297.6747437,
2.137500048,295.8502197,
2.139166832,297.3777771,
2.140833378,297.1203308,
2.142500162,296.7866211,
2.144166708,297.1809692,
2.145833254,297.7736511,
2.147500038,294.9233398,
2.149166584,299.7801208,
2.150833368,295.5866394,
2.152500153,295.4271545,
2.154166698,297.4338379,
2.155833483,297.9138794,
2.157500029,296.8745117,
2.159166813,297.2538452,
2.160833597,296.2742004,
2.162499905,297.3553467,
2.164166689,297.9929199,
2.165833235,295.9369507,
2.167500019,296.4928894,
2.169166803,296.8894043,
2.170833349,295.6278992,
2.172500134,296.5703735,
2.174166679,298.8732605,
2.175833464,296.6577759,
2.177500248,297.0770569,
2.179166555,299.3135681,
2.18083334,295.6284485,
2.182499886,295.6724548,
2.18416667,299.1431885,
2.185833454,298.1058655,
2.1875,298.203186,
2.189166784,296.3774719,
2.19083333,296.0497131,
2.192500114,299.7149658,
2.194166899,297.3192749,
2.195833445,295.840332,
2.19749999,296.6644897,
2.199166536,296.6170654,
2.200833321,297.5570679,
2.202500105,302.1980896,
2.204166651,297.5065308,
2.205833435,297.0131836,
2.207499981,296.2962952,
2.209166765,299.7177734,
2.210833549,299.7731934,
2.212500095,296.9936218,
2.21416688,296.2561035,
2.215833187,298.4153137,
2.217499971,294.9679871,
2.219166756,295.4030762,
2.220833302,298.7782288,
2.222500086,295.5153198,
2.224166632,296.555481,
2.225833416,297.667511,
2.2275002,296.676178,
2.229166746,296.8997192,
2.23083353,296.7523499,
2.232499838,296.9519348,
2.234166622,297.9960938,
2.235833406,298.627533,
2.237499952,297.1669312,
2.239166737,296.7036438,
2.240833282,299.0458679,
2.242500067,296.5445557,
2.244166851,297.0571594,
2.245833397,296.6081543,
2.247500181,297.5830688,
2.249166727,298.383606,
2.250833273,298.9214783,
2.252500057,298.4673157,
2.254166603,297.1763611,
2.255833387,296.0274963,
2.257499933,297.0126343,
2.259166718,296.6387939,
2.260833502,297.318573,
2.262500048,296.306488,
2.264166832,295.5784912,
2.265833378,296.7907104,
2.267500162,299.1895447,
2.269166708,298.8556519,
2.270833254,297.9638367,
2.272500038,299.5044861,
2.274166584,297.4564514,
2.275833368,295.0697632,
2.277500153,298.8955994,
2.279166698,297.0500488,
2.280833483,298.5909729,
2.282500029,295.9766235,
2.284166813,299.2645874,
2.285833597,297.7936096,
2.287499905,297.9708557,
2.289166689,297.8101196,
2.290833235,297.4552002,
2.292500019,296.5820007,
2.294166803,296.5105286,
2.295833349,296.6661072,
2.297500134,298.144104,
2.299166679,298.2249146,
2.300833464,297.7863159,
2.302500248,296.7926025,
2.304166555,296.1041565,
2.30583334,297.8862,
2.307499886,296.7230225,
2.30916667,298.0508423,
2.310833454,297.9654236,
2.3125,297.4709167,
2.314166784,296.0624084,
2.31583333,296.9451599,
2.317500114,297.8683472,
2.319166899,298.2064209,
2.320833445,295.9754639,
2.32249999,297.2597046,
2.324166536,295.8845825,
2.325833321,296.9664612,
2.327500105,296.7984619,
2.329166651,296.8763123,
2.330833435,298.3211365,
2.332499981,297.9684448,
2.334166765,296.7953491,
2.335833549,296.953949,
2.337500095,297.9117737,
2.33916688,299.0071716,
2.340833187,301.6663513,
2.342499971,296.497406,
2.344166756,296.1828613,
2.345833302,297.1101379,
2.347500086,297.7184143,
2.349166632,297.3479919,
2.350833416,296.3279114,
2.3525002,296.6863098,
2.354166746,297.5536804,
2.35583353,297,
2.357499838,296.4971008,
2.359166622,298.2326965,
2.360833406,297.4820251,
2.362499952,298.0494995,
2.364166737,297.5103149,
2.365833282,297.8215332,
2.367500067,298.0187683,
2.369166851,297.2149048,
2.370833397,297.9938965,
2.372500181,296.7084656,
2.374166727,298.9064026,
2.375833273,296.901886,
2.377500057,297.5039978,
2.379166603,296.9481201,
2.380833387,296.7154236,
2.382499933,296.1092834,
2.384166718,297.5755005,
2.385833502,297.7822876,
2.387500048,297.6101685,
2.389166832,296.7167969,
2.390833378,297.5263062,
2.392500162,297.4049377,
2.394166708,297.506012,
2.395833254,299.2178955,
2.397500038,298.0398865,
2.399166584,297.1142578,
2.400833368,295.196167,
2.402500153,297.7132874,
2.404166698,297.7512817,
2.405833483,298.0918579,
2.407500029,296.4136963,
2.409166813,297.5682983,
2.410833597,298.7579346,
2.412499905,299.0718994,
2.414166689,295.3002625,
2.415833235,296.6486206,
2.417500019,298.1997986,
2.419166803,296.2268982,
2.420833349,297.6229858,
2.422500134,298.0687256,
2.424166679,298.5987854,
2.425833464,295.6420898,
2.427500248,296.0857849,
2.429166555,296.9007874,
2.43083334,299.6330261,
2.432499886,297.0909729,
2.43416667,296.981781,
2.435833454,298.6072083,
2.4375,299.6165466,
2.439166784,299.782196,
2.44083333,296.3427734,
2.442500114,297.2329712,
2.444166899,298.3223267,
2.445833445,298.2773743,
2.44749999,296.1015015,
2.449166536,297.6960449,
2.450833321,297.1197815,
2.452500105,298.5027161,
2.454166651,297.5411682,
2.455833435,297.1641846,
2.457499981,296.9952698,
2.459166765,298.3526917,
2.460833549,299.4608459,
2.462500095,300.0109558,
2.46416688,298.558136,
2.465833187,296.4649048,
2.467499971,298.6962585,
2.469166756,298.3415527,
2.470833302,299.4988708,
2.472500086,298.6957397,
2.474166632,300.7383118,
2.475833416,296.9781799,
2.4775002,299.1318054,
2.479166746,296.740387,
2.48083353,298.5721741,
2.482499838,298.7360229,
2.484166622,297.7608948,
2.485833406,296.1774292,
2.487499952,301.1150513,
2.489166737,300.3279724,
2.490833282,296.62854,
2.492500067,298.8542175,
2.494166851,296.1173401,
2.495833397,297.7410889,
2.497500181,297.1457825,
2.499166727,296.1448975,
2.500833273,299.0508423,
2.502500057,297.3359375,
2.504166603,298.4065247,
2.505833387,296.3690491,
2.507499933,297.9737549,
2.509166718,299.1047363,
2.510833502,298.1811829,
2.512500048,297.4708862,
2.514166832,300.0440674,
2.515833378,300.7156677,
2.517500162,298.7695007,
2.519166708,299.5037842,
2.520833254,297.4592285,
2.522500038,296.5112,
2.524166584,297.4951477,
2.525833368,297.7599487,
2.527500153,299.1850281,
2.529166698,297.3573608,
2.530833483,297.9778748,
2.532500029,297.7721252,
2.534166813,297.6677551,
2.535833597,296.8234863,
2.537499905,299.6105347,
2.539166689,299.455719,
2.540833235,297.7485352,
2.542500019,297.6248169,
2.544166803,296.6112366,
2.545833349,295.4295349,
2.547500134,296.5062561,
2.549166679,296.4472046,
2.550833464,297.8045349,
2.552500248,297.2675476,
2.554166555,297.8792419,
2.55583334,298.086731,
2.557499886,297.8591003,
2.55916667,298.8631897,
2.560833454,296.3942261,
2.5625,296.3005066,
2.564166784,298.0519714,
2.56583333,297.0296936,
2.567500114,298.4517517,
2.569166899,296.9798889,
2.570833445,297.1059265,
2.57249999,296.8462219,
2.574166536,296.4513855,
2.575833321,298.4118958,
2.577500105,298.4500732,
2.579166651,297.1242676,
2.580833435,298.3125,
2.582499981,296.6688843,
2.584166765,296.5095215,
2.585833549,297.6461792,
2.587500095,295.7998962,
2.58916688,296.5740356,
2.590833187,297.2562256,
2.592499971,297.6056519,
2.594166756,296.973938,
2.595833302,298.4272766,
2.597500086,297.5453186,
2.599166632,297.6332092,
2.600833416,298.9726868,
2.6025002,297.9840698,
2.604166746,297.3098145,
2.60583353,299.2630005,
2.607499838,298.2663879,
2.609166622,297.2185059,
2.610833406,297.1121216,
2.612499952,298.1417847,
2.614166737,298.2954407,
2.615833282,296.2306519,
2.617500067,297.6261292,
2.619166851,298.1524963,
2.620833397,295.0835571,
2.622500181,296.3760071,
2.624166727,298.5452271,
2.625833273,297.6420898,
2.627500057,295.7912292,
2.629166603,298.3650513,
2.630833387,297.4160767,
2.632499933,296.6008301,
2.634166718,299.7585754,
2.635833502,297.4163513,
2.637500048,298.8556519,
2.639166832,296.6419983,
2.640833378,297.2062683,
2.642500162,297.5184021,
2.644166708,296.6024475,
2.645833254,299.6404419,
2.647500038,297.9993286,
2.649166584,300.8352661,
2.650833368,296.7525024,
2.652500153,296.2619934,
2.654166698,298.3571472,
2.655833483,296.533844,
2.657500029,298.1019592,
2.659166813,295.2518311,
2.660833597,296.053009,
2.662499905,298.0721436,
2.664166689,298.2510071,
2.665833235,298.8504944,
2.667500019,296.0748901,
2.669166803,298.7887573,
2.670833349,296.397522,
2.672500134,296.9402466,
2.674166679,298.7477722,
2.675833464,298.3076782,
2.677500248,298.6431885,
2.679166555,296.8745117,
2.68083334,296.6040039,
2.682499886,300.2021484,
2.68416667,297.7339783,
2.685833454,299.497467,
2.6875,296.5060425,
2.689166784,296.4803772,
2.69083333,297.2553711,
2.692500114,297.3896179,
2.694166899,298.7341614,
2.695833445,297.2619934,
2.69749999,296.6817932,
2.699166536,295.9632263,
2.700833321,297.7446594,
2.702500105,297.6365051,
2.704166651,297.1922302,
2.705833435,299.4893188,
2.707499981,298.2400818,
2.709166765,298.8890076,
2.710833549,298.5682983,
2.712500095,298.0611267,
2.71416688,296.6405029,
2.715833187,296.2093811,
2.717499971,298.4775391,
2.719166756,296.8703308,
2.720833302,297.7174377,
2.722500086,297.9452515,
2.724166632,298.6271973,
2.725833416,299.0735474,
2.7275002,297.1466675,
2.729166746,298.1439209,
2.73083353,297.7877502,
2.732499838,298.4240112,
2.734166622,300.3414612,
2.735833406,297.3683777,
2.737499952,298.3135376,
2.739166737,298.140686,
2.740833282,298.6979675,
2.742500067,299.3231812,
2.744166851,296.4051514,
2.745833397,297.5941467,
2.747500181,296.0016785,
2.749166727,295.4293823,
2.750833273,297.5534058,
2.752500057,297.0228271,
2.754166603,298.6146851,
2.755833387,300.2784729,
2.757499933,296.942688,
2.759166718,298.561554,
2.760833502,298.6127014,
2.762500048,297.1882324,
2.764166832,299.1100464,
2.765833378,299.4153442,
2.767500162,298.7345886,
2.769166708,298.0132141,
2.770833254,298.0472107,
2.772500038,297.3693848,
2.774166584,296.2984619,
2.775833368,297.0201416,
2.777500153,296.8354797,
2.779166698,296.8105164,
2.780833483,298.2385864,
2.782500029,297.0329895,
2.784166813,297.2247314,
2.785833597,297.7010803,
2.787499905,296.5214233,
2.789166689,296.9421387,
2.790833235,298.1436462,
2.792500019,296.7628174,
2.794166803,300.8565674,
2.795833349,297.1595764,
2.797500134,299.2459412,
2.799166679,297.0058899,
2.800833464,298.4686279,
2.802500248,297.5442505,
2.804166555,297.4954834,
2.80583334,298.4332886,
2.807499886,296.3078003,
2.80916667,298.3374634,
2.810833454,298.031311,
2.8125,299.0879517,
2.814166784,296.912384,
2.81583333,297.7341003,
2.817500114,297.3739624,
2.819166899,296.4061279,
2.820833445,298.1828613,
2.82249999,299.1572266,
2.824166536,298.9879456,
2.825833321,297.3816528,
2.827500105,297.3326721,
2.829166651,297.600769,
2.830833435,300.5100403,
2.832499981,296.4772644,
2.834166765,296.1278687,
2.835833549,299.5617676,
2.837500095,296.0577393,
2.83916688,296.6557617,
2.840833187,297.7647705,
2.842499971,298.1113586,
2.844166756,298.5095825,
2.845833302,298.4016724,
2.847500086,299.3532715,
2.849166632,298.1905518,
2.850833416,300.0006104,
2.8525002,298.4572449,
2.854166746,297.8424377,
2.85583353,297.1493225,
2.857499838,299.4100342,
2.859166622,297.7760315,
2.860833406,299.6742859,
2.862499952,298.2319031,
2.864166737,297.2727661,
2.865833282,298.2729187,
2.867500067,297.7487793,
2.869166851,300.4353638,
2.870833397,298.680542,
2.872500181,296.7026672,
2.874166727,298.0064392,
2.875833273,298.103363,
2.877500057,297.3694153,
2.879166603,297.5484314,
2.880833387,300.3761597,
2.882499933,297.2792969,
2.884166718,296.6694946,
2.885833502,297.3356628,
2.887500048,297.5150452,
2.889166832,298.8791199,
2.890833378,299.2157593,
2.892500162,298.350769,
2.894166708,299.337677,
2.895833254,298.1621704,
2.897500038,296.0303345,
2.899166584,297.6493835,
2.900833368,296.5768127,
2.902500153,296.4067993,
2.904166698,297.8529358,
2.905833483,298.1238098,
2.907500029,297.5093079,
2.909166813,299.4224243,
2.910833597,297.3499451,
2.912499905,299.0278625,
2.914166689,298.4737549,
2.915833235,298.7311096,
2.917500019,296.5,
2.919166803,297.8510437,
2.920833349,297.8964844,
2.922500134,298.1214905,
2.924166679,300.1828918,
2.925833464,296.4941101,
2.927500248,298.1408386,
2.929166555,299.0555115,
2.93083334,296.4011841,
2.932499886,298.7307129,
2.93416667,297.0296936,
2.935833454,298.1984558,
2.9375,298.1481018,
2.939166784,298.5923462,
2.94083333,297.3894958,
2.942500114,298.2145996,
2.944166899,297.0569153,
2.945833445,298.7880859,
2.94749999,298.3737488,
2.949166536,297.6270752,
2.950833321,296.6072388,
2.952500105,297.7070618,
2.954166651,299.0245056,
2.955833435,297.3828735,
2.957499981,295.8418579,
2.959166765,298.563385,
2.960833549,297.6077576,
2.962500095,297.3435364,
2.96416688,297.5582275,
2.965833187,296.5783691,
2.967499971,297.9398804,
2.969166756,297.6392517,
2.970833302,297.78479,
2.972500086,296.6715393,
2.974166632,299.1931763,
2.975833416,299.6516113,
2.9775002,296.9021606,
2.979166746,298.1147156,
2.98083353,298.6677246,
2.982499838,295.9888,
2.984166622,298.3668823,
2.985833406,298.5633545,
2.987499952,297.401886,
2.989166737,297.7719116,
2.990833282,297.2828674,
2.992500067,297.659668,
2.994166851,296.5383911,
2.995833397,298.5481873,
2.997500181,296.8432617,
2.999166727,297.5469971,
3.000833273,297.6687622,
3.002500057,298.7784119,
3.004166603,296.2896729,
3.005833387,298.8293762,
3.007499933,298.4905396,
3.009166718,296.3681946,
3.010833502,296.6443787,
3.012500048,295.6777344,
3.014166832,296.7336731,
3.015833378,299.3876953,
3.017500162,298.9032898,
3.019166708,297.4165344,
3.020833254,297.3677368,
3.022500038,297.083313,
3.024166584,298.1403503,
3.025833368,297.8934326,
3.027500153,298.821106,
3.029166698,297.0963745,
3.030833483,299.8449707,
3.032500029,300.3608398,
3.034166813,297.2252808,
3.035833597,296.2154236,
3.037499905,296.950531,
3.039166689,297.9868774,
3.040833235,296.4549255,
3.042500019,300.2217102,
3.044166803,298.7064514,
3.045833349,298.6340942,
3.047500134,298.4432678,
3.049166679,297.1372681,
3.050833464,297.8979797,
3.052500248,297.5066223,
3.054166555,298.9853821,
3.05583334,298.7232056,
3.057499886,298.1377563,
3.05916667,296.3632813,
3.060833454,298.4048767,
3.0625,297.925354,
3.064166784,298.1538391,
3.06583333,296.5959167,
3.067500114,298.4082336,
3.069166899,296.9122009,
3.070833445,298.2513733,
3.07249999,297.35672,
3.074166536,298.9105835,
3.075833321,296.40625,
3.077500105,297.7475586,
3.079166651,297.2265015,
3.080833435,295.5551758,
3.082499981,297.6123352,
3.084166765,298.7696228,
3.085833549,298.6882019,
3.087500095,297.0939941,
3.08916688,299.5354919,
3.090833187,295.5031128,
3.092499971,296.9143677,
3.094166756,297.1273499,
3.095833302,296.9282837,
3.097500086,296.9705811,
3.099166632,297.6829224,
3.100833416,299.9706421,
3.1025002,298.7990112,
3.104166746,298.2442627,
3.10583353,299.5302429,
3.107499838,299.5602112,
3.109166622,296.3041382,
3.110833406,300.3635254,
3.112499952,299.5200806,
3.114166737,297.2986145,
3.115833282,299.3340454,
3.117500067,299.0123291,
3.119166851,297.665802,
3.120833397,297.9504395,
3.122500181,297.0664063,
3.124166727,298.8143311,
3.125833273,298.9224854,
3.127500057,298.7405701,
3.129166603,298.4876709,
3.130833387,298.1407471,
3.132499933,297.8201294,
3.134166718,298.117981,
3.135833502,299.0735779,
3.137500048,297.4607849,
3.139166832,296.2794495,
3.140833378,297.5097961,
3.142500162,298.685791,
3.144166708,298.2506409,
3.145833254,299.3919373,
3.147500038,298.1615601,
3.149166584,298.1218872,
3.150833368,297.1135254,
3.152500153,296.4335327,
3.154166698,297.4129028,
3.155833483,299.7608032,
3.157500029,297.2090759,
3.159166813,300.1561279,
3.160833597,298.1127319,
3.162499905,296.2161865,

