5a,
Time (min),Intensity (a.u.)
0.000833333,333.2883606
0.0025,333.7390442
0.004166667,333.8129272
0.005833333,333.3585205
0.0075,333.4429321
0.009166667,332.183197
0.010833334,332.4495239
0.0125,334.2663879
0.014166667,332.4386597
0.015833333,333.8104553
0.017500002,333.4755859
0.019166667,332.7321472
0.020833334,334.8373108
0.022500001,333.7475891
0.024166668,332.5980225
0.025833335,332.8944702
0.0275,333.3274536
0.029166667,332.842041
0.030833334,333.7823486
0.032500003,334.0025635
0.034166668,332.7319336
0.035833336,333.5881653
0.037500001,333.1389465
0.03916667,333.1901245
0.040833335,332.7546082
0.0425,332.4664307
0.044166669,333.5452576
0.045833334,333.794281
0.047500003,332.2851868
0.049166668,331.920929
0.050833333,333.1720581
0.052500002,336.019165
0.054166667,335.0639038
0.055833336,333.5760498
0.057500001,334.2294922
0.059166666,332.1440125
0.060833335,333.6562805
0.0625,332.5115967
0.064166673,332.6618958
0.065833338,333.2884827
0.067500003,331.8168335
0.069166668,335.3509216
0.070833333,332.9801025
0.072499998,333.1162415
0.07416667,333.8410645
0.075833336,334.4642944
0.077500001,334.3248596
0.079166666,335.7066956
0.080833331,335.1642761
0.082500003,332.6636047
0.084166668,334.2800293
0.085833333,333.3333435
0.087499999,334.1870117
0.089166664,332.1268005
0.090833336,333.6295471
0.092500001,334.2093201
0.094166666,334.0185547
0.095833331,337.0295715
0.097499996,332.1235352
0.099166669,333.3233032
0.100833334,334.2589722
0.102499999,334.1659546
0.104166664,333.0319214
0.105833329,334.5232239
0.107500002,335.0011597
0.109166667,335.6512451
0.110833332,333.7039795
0.112499997,335.0875854
0.114166662,334.2553101
0.115833335,332.2864075
0.1175,331.7884827
0.119166665,332.6036377
0.12083333,334.5513
0.122499995,333.2790222
0.124166675,333.1808167
0.125833333,332.1114502
0.127499998,331.8907471
0.129166663,332.6414185
0.130833328,332.3615417
0.132500008,334.9101868
0.134166673,334.4696045
0.135833338,333.8652039
0.137500003,333.9651794
0.139166668,333.2714539
0.140833333,333.2874146
0.142499998,332.5573425
0.144166678,334.4731445
0.145833328,335.3765869
0.147500008,333.1874084
0.149166659,334.5565186
0.150833339,332.3856812
0.152500004,333.3813782
0.154166669,334.5141296
0.155833334,333.3833313
0.157499999,334.5958557
0.159166664,333.2035828
0.160833344,332.7641907
0.162499994,332.9194946
0.164166674,335.6275024
0.165833324,334.8562012
0.167500004,334.6181946
0.169166669,335.8400879
0.170833334,333.7316589
0.172499999,335.2732544
0.174166665,335.2586365
0.17583333,334.5489502
0.17750001,333.986969
0.17916666,333.5601196
0.18083334,334.8746338
0.18249999,332.6109619
0.18416667,331.4689331
0.18583335,332.7222595
0.1875,332.5263062
0.18916668,332.7661133
0.19083333,332.6458435
0.19250001,332.5887451
0.194166675,333.4631958
0.19583334,330.8413086
0.197500005,331.8950195
0.19916667,333.5586853
0.200833336,331.5364685
0.202500016,332.690033
0.204166666,332.8215942
0.205833346,333.5542603
0.207499996,332.9027405
0.209166676,332.1080627
0.210833341,333.2159729
0.212500006,331.6990662
0.214166671,332.0801392
0.215833336,333.1399536
0.217500001,335.0397644
0.219166681,334.6691284
0.220833331,333.3568726
0.222500011,332.8272705
0.224166662,332.1606445
0.225833342,334.2234192
0.227500007,332.7376404
0.229166672,333.9031982
0.230833337,335.2559509
0.232500002,335.6800232
0.234166667,332.5117493
0.235833347,331.7678223
0.237499997,333.6471558
0.239166677,334.1330872
0.240833327,332.9244995
0.242500007,334.3620911
0.244166672,332.2439575
0.245833337,334.1383972
0.247500002,331.243042
0.249166668,335.0419312
0.250833333,333.8113403
0.252499998,335.6753235
0.254166663,335.6430054
0.255833328,333.8788147
0.257499993,335.0212708
0.259166658,333.7797241
0.260833353,335.5440063
0.262499988,335.2349548
0.264166683,333.9693298
0.265833318,333.6013184
0.267500013,335.0858765
0.269166648,333.5115051
0.270833343,334.4549255
0.272500008,332.9697266
0.274166673,335.504425
0.275833339,334.5938721
0.277500004,335.1685486
0.279166669,333.0453796
0.280833334,334.7233582
0.282499999,332.621582
0.284166694,334.4284058
0.285833329,334.5715332
0.287499994,333.8471069
0.289166659,335.8003235
0.290833354,333.8694763
0.292500019,335.4481201
0.294166654,333.1613159
0.295833319,337.3251953
0.297500014,334.6369019
0.299166679,327.1151733
0.300833345,332.4022522
0.30249998,334.9848022
0.304166675,336.2671814
0.30583334,332.915802
0.307500005,334.8089294
0.3091667,334.3683167
0.310833335,335.4664307
0.3125,343.5184937
0.314166665,332.9987793
0.31583336,333.6318054
0.317500025,331.9882507
0.31916666,334.8383179
0.320833325,334.182251
0.32250002,334.7378235
0.324166685,333.9264221
0.32583335,333.2794189
0.327499986,332.9498291
0.329166681,333.7827454
0.330833346,333.6681824
0.332500011,335.7165222
0.334166676,333.0168457
0.335833341,333.7637634
0.337500006,332.9019165
0.339166671,331.4371643
0.340833336,336.1911926
0.342500031,333.3514404
0.344166666,335.527771
0.345833331,334.3153687
0.347499996,332.764801
0.349166691,334.5877991
0.350833356,333.2762756
0.352499992,332.7488708
0.354166657,332.2384338
0.355833352,332.5067749
0.357500017,333.263092
0.359166682,333.4549561
0.360833317,335.5658264
0.362500012,333.5308838
0.364166677,332.2283936
0.365833342,334.4077454
0.367500007,332.9615479
0.369166672,332.7837219
0.370833337,334.4157104
0.372500002,333.132782
0.374166668,332.7333679
0.375833362,333.5154724
0.377499998,334.0000305
0.379166663,335.5917969
0.380833328,332.2545776
0.382500023,334.4156189
0.384166688,330.9124146
0.385833323,334.2080383
0.387499988,335.1524353
0.389166683,333.6578979
0.390833348,333.3293457
0.392500013,332.4008789
0.394166648,334.4784851
0.395833343,333.7771606
0.397500008,332.6485291
0.399166673,332.7244568
0.400833339,332.5473938
0.402500004,333.02948
0.404166669,334.3574219
0.405833334,334.2044678
0.407499999,332.1207886
0.409166694,333.6114502
0.410833329,334.0984497
0.412499994,333.3414001
0.414166659,336.6205444
0.415833354,334.5572815
0.417500019,332.3043518
0.419166654,333.7591248
0.420833319,337.0863647
0.422500014,331.7942505
0.424166679,332.6587524
0.425833345,332.6217651
0.42749998,333.1590881
0.429166675,332.1402893
0.43083334,334.3395996
0.432500005,336.2080994
0.4341667,332.983551
0.435833335,333.5258179
0.4375,334.2324829
0.439166665,333.8468323
0.44083336,334.6614685
0.442500025,334.4618225
0.44416666,333.4953613
0.445833325,334.820343
0.44750002,332.5158386
0.449166685,334.2071228
0.45083335,333.6051331
0.452499986,334.7503052
0.454166681,333.8237
0.455833346,335.1181946
0.457500011,334.4768677
0.459166676,334.5470581
0.460833341,333.8761292
0.462500006,334.1143494
0.464166671,334.2332764
0.465833336,333.997406
0.467500031,333.8083191
0.469166666,333.6000366
0.470833331,333.981781
0.472499996,333.0325928
0.474166691,332.0057678
0.475833356,333.5819397
0.477499992,332.934021
0.479166657,331.2943726
0.480833352,333.0558472
0.482500017,333.5752869
0.484166682,331.5343018
0.485833317,332.6752625
0.487500012,333.760376
0.489166677,334.1049805
0.490833342,333.4832458
0.492500007,329.8907471
0.494166672,332.7254333
0.495833337,334.096283
0.497500002,332.6259766
0.499166668,331.6358032
0.500833333,331.7544861
0.502499998,332.1619568
0.504166663,337.6765137
0.505833328,335.2738342
0.507499993,333.4684448
0.509166658,333.8894653
0.510833323,335.919281
0.512499988,332.1614075
0.514166653,333.6909485
0.515833318,334.6542664
0.517500043,334.4121094
0.519166648,333.3530579
0.520833314,331.1288147
0.522499979,331.9468384
0.524166703,334.056366
0.525833368,332.974762
0.527499974,334.462677
0.529166639,333.0324097
0.530833364,333.0793457
0.532500029,333.9860535
0.534166634,332.8267822
0.535833359,334.7749939
0.537500024,332.7677307
0.539166689,333.2834473
0.540833354,334.1052551
0.54249996,333.2773743
0.544166684,334.4394836
0.545833349,334.0423889
0.547500014,334.3543396
0.549166679,333.6747437
0.550833345,334.5552063
0.55250001,334.809967
0.554166675,332.3196411
0.555833399,334.6286011
0.557500005,335.3331604
0.55916667,334.6049194
0.560833335,334.7801819
0.5625,335.7679138
0.564166725,332.0611267
0.56583333,335.0414429
0.567499995,331.1133118
0.56916672,333.0444336
0.570833325,332.7848511
0.57250005,335.5921936
0.574166656,332.3989868
0.575833321,334.3902283
0.577500045,332.2276611
0.579166651,333.4968567
0.580833376,334.3335266
0.582500041,331.726532
0.584166646,332.3928223
0.585833371,332.7004395
0.587499976,333.3960876
0.589166701,333.8926086
0.590833366,332.809906
0.592499971,332.6860657
0.594166696,333.1308594
0.595833361,332.5623474
0.597500026,332.7724609
0.599166691,334.5535889
0.600833297,332.9308472
0.602500022,332.467926
0.604166687,333.3912048
0.605833352,333.3796692
0.607500017,332.6512451
0.609166682,335.8197021
0.610833347,333.6710815
0.612500012,333.377533
0.614166677,333.9576416
0.615833342,332.6890259
0.617500007,333.6405334
0.619166672,332.9399414
0.620833337,333.2584534
0.622500062,333.6899414
0.624166668,332.9638977
0.625833333,332.0779724
0.627499998,332.9034119
0.629166663,332.5436096
0.630833387,332.3552551
0.632499993,333.5593872
0.634166658,333.8005371
0.635833383,333.5950012
0.637499988,333.1725769
0.639166713,333.2279968
0.640833318,333.6453247
0.642499983,334.4915161
0.644166708,332.7388306
0.645833314,332.5908508
0.647500038,333.5309143
0.649166703,333.7402344
0.650833309,334.2877502
0.652500033,332.5661621
0.654166639,332.7150269
0.655833364,331.8093872
0.657500029,332.8340454
0.659166634,333.2260742
0.660833359,332.7653198
0.662500024,331.7547302
0.664166689,333.6189575
0.665833354,333.2024231
0.66749996,332.9802246
0.669166684,334.5728455
0.670833349,335.5326538
0.672500014,334.2001038
0.674166679,332.2667847
0.675833345,337.7851257
0.67750001,334.7362671
0.679166675,334.4440918
0.680833399,334.8462524
0.682500005,332.2966919
0.68416667,332.2298889
0.685833335,331.8362427
0.6875,337.3357544
0.689166725,334.3699646
0.69083333,334.4151001
0.692499995,336.5809631
0.69416672,334.3884888
0.695833325,336.4400635
0.69750005,334.4032288
0.699166656,331.8454285
0.700833321,334.5585938
0.702500045,333.8604736
0.704166651,332.6330261
0.705833376,332.40802
0.707500041,334.0541382
0.709166646,334.4214478
0.710833371,336.9862061
0.712499976,335.2219849
0.714166701,333.0466919
0.715833366,335.3067017
0.717499971,333.800354
0.719166696,333.8603821
0.720833361,334.585144
0.722500026,333.9960938
0.724166691,333.6981812
0.725833297,336.3404846
0.727500022,332.2553101
0.729166687,335.6339722
0.730833352,336.0094604
0.732500017,333.7727966
0.734166682,333.5983276
0.735833347,332.4762878
0.737500012,333.114502
0.739166677,334.6799316
0.740833342,332.8651428
0.742500007,334.3731384
0.744166672,335.0335999
0.745833337,335.6509094
0.747500062,334.2350159
0.749166668,334.7425232
0.750833333,337.4550781
0.752499998,331.7096863
0.754166663,333.7729797
0.755833387,334.2669678
0.757499993,333.3353271
0.759166658,331.68573
0.760833383,332.7885132
0.762499988,336.7053528
0.764166713,333.0360107
0.765833318,334.4384766
0.767499983,334.6530151
0.769166708,335.3126221
0.770833314,332.3609924
0.772500038,332.3201904
0.774166703,331.932251
0.775833309,332.8899536
0.777500033,332.7822266
0.779166639,331.8804016
0.780833364,332.6277466
0.782500029,333.1200256
0.784166634,331.0183716
0.785833359,333.7391052
0.787500024,332.9843445
0.789166689,332.3174133
0.790833354,332.6752319
0.79249996,333.2074585
0.794166684,334.1725159
0.795833349,332.7799683
0.797500014,332.5184326
0.799166679,333.2113647
0.800833345,332.3363647
0.80250001,333.9743347
0.804166675,332.9075012
0.805833399,334.335968
0.807500005,333.3733826
0.80916667,334.8839111
0.810833335,335.3258972
0.8125,333.1401978
0.814166725,333.9387817
0.81583333,331.7059021
0.817499995,332.1975708
0.81916672,331.9085388
0.820833325,333.8322754
0.82250005,333.1046753
0.824166656,334.0109558
0.825833321,333.464386
0.827500045,334.9997559
0.829166651,333.9899902
0.830833376,331.4613037
0.832500041,333.296814
0.834166646,332.3937988
0.835833371,333.6285706
0.837499976,334.1592407
0.839166701,331.8575439
0.840833366,333.2418213
0.842499971,335.4954834
0.844166696,332.8788452
0.845833361,332.6670227
0.847500026,335.7643738
0.849166691,333.8764954
0.850833297,334.1099243
0.852500022,332.9630432
0.854166687,336.1102905
0.855833352,333.3273315
0.857500017,334.6000061
0.859166682,337.0915833
0.860833347,334.1095276
0.862500012,332.8737488
0.864166677,334.0327454
0.865833342,333.273468
0.867500007,332.4854736
0.869166672,331.5735168
0.870833337,334.1065063
0.872500062,335.5643005
0.874166668,334.1457214
0.875833333,337.5822754
0.877499998,336.5741272
0.879166663,333.2770386
0.880833387,334.4344177
0.882499993,333.6688843
0.884166658,333.0657959
0.885833383,336.2232666
0.887499988,333.8025818
0.889166713,331.1473694
0.890833318,333.0204163
0.892499983,334.1000977
0.894166708,335.397644
0.895833314,334.1756287
0.897500038,335.5230713
0.899166703,333.3840027
0.900833309,333.7702026
0.902500033,333.8314514
0.904166639,334.7657166
0.905833364,332.7183838
0.907500029,331.284668
0.909166634,333.7510986
0.910833359,332.4692993
0.912500024,333.4294434
0.914166689,333.2989807
0.915833354,333.2248535
0.91749996,333.8047791
0.919166684,333.4436035
0.920833349,333.2804565
0.922500014,333.2240295
0.924166679,334.1728821
0.925833345,333.5852356
0.92750001,334.2227783
0.929166675,335.7583618
0.930833399,333.1523438
0.932500005,333.286438
0.93416667,332.2279358
0.935833335,331.293457
0.9375,332.4109497
0.939166725,331.8500671
0.94083333,332.9130554
0.942499995,332.0752563
0.94416672,332.8110352
0.945833325,334.8653564
0.94750005,334.0802612
0.949166656,334.2509155
0.950833321,334.2810364
0.952500045,334.3661499
0.954166651,330.8096924
0.955833376,332.5177917
0.957500041,331.9993896
0.959166646,334.6316223
0.960833371,335.0585327
0.962499976,331.8964233
0.964166701,331.8275757
0.965833366,332.2686768
0.967499971,333.9783325
0.969166696,332.3111572
0.970833361,332.5192566
0.972500026,331.1617126
0.974166691,333.7045593
0.975833297,333.0912476
0.977500022,330.6333618
0.979166687,334.2106018
0.980833352,330.7771912
0.982500017,333.3252563
0.984166682,334.9602356
0.985833347,334.312561
0.987500012,331.5630188
0.989166677,332.9348755
0.990833342,333.0961304
0.992500007,333.3554688
0.994166672,332.7675476
0.995833337,333.2467346
0.997500062,333.5413208
0.999166668,335.3410339
1.000833273,331.8944702
1.002500057,332.653595
1.004166722,330.2661743
1.005833387,333.3493652
1.007500052,333.4763794
1.009166598,332.680603
1.010833383,332.500061
1.012500048,333.0092163
1.014166713,333.6178589
1.015833378,333.2812805
1.017500043,333.8377075
1.019166708,333.1974792
1.020833373,333.2355042
1.022500038,333.3088379
1.024166703,332.7816772
1.025833368,334.1023254
1.027500033,332.2038574
1.029166698,333.038269
1.030833364,334.3995361
1.032500029,331.8248596
1.034166694,332.9685974
1.035833359,332.7727356
1.037500024,330.8326721
1.039166689,333.3533325
1.040833354,332.8940125
1.042500019,332.437561
1.044166684,333.6856384
1.045833349,332.9648132
1.047500014,332.1497803
1.049166679,333.3551941
1.050833344,331.5799561
1.05250001,332.9437866
1.054166675,331.8156738
1.05583334,331.5460815
1.057500005,331.5466003
1.05916667,330.6932373
1.060833335,334.4011536
1.0625,333.7749939
1.064166665,333.1063538
1.06583333,332.1967468
1.067499995,333.9849854
1.06916666,333.9182434
1.070833325,333.9102478
1.07249999,330.8893127
1.074166775,332.7554016
1.07583344,333.3636475
1.077499986,332.504425
1.079166651,334.6169128
1.080833316,333.0328674
1.0825001,333.9648743
1.084166765,334.3251038
1.085833311,332.3925781
1.087499976,331.582489
1.089166641,334.5593567
1.090833426,336.0345459
1.092500091,331.9052429
1.094166636,330.8421326
1.095833302,331.9587402
1.097499967,332.5783691
1.099166751,333.1304932
1.100833416,332.9728699
1.102500081,332.2332764
1.104166627,331.3561707
1.105833292,332.132019
1.107500076,332.4528198
1.109166741,334.6051636
1.110833406,331.4146118
1.112499952,333.2139893
1.114166617,331.9198303
1.115833402,333.9872437
1.117500067,331.433075
1.119166732,331.9225769
1.120833278,330.6917419
1.122499943,332.9103088
1.124166727,331.6289673
1.125833392,332.6993713
1.127500057,331.3737183
1.129166722,333.7479248
1.130833268,330.0878906
1.132500052,330.0015869
1.134166718,331.9946289
1.135833383,331.7024231
1.137500048,332.7023315
1.139166594,332.8843689
1.140833378,331.4066772
1.142500043,331.5316162
1.144166708,332.6705933
1.145833373,333.287384
1.147499919,332.1139832
1.149166703,332.8131714
1.150833368,334.1671753
1.152500033,332.2319946
1.154166698,334.1963806
1.155833364,332.7641907
1.157500029,331.5598145
1.159166694,332.938324
1.160833359,332.3360901
1.162500024,331.8312683
1.164166689,332.2971497
1.165833354,332.4054871
1.167500019,333.1508179
1.169166684,334.897644
1.170833349,331.3636475
1.172500014,331.2082214
1.174166799,331.7807312
1.175833344,332.029541
1.17750001,331.3829346
1.179166675,332.6670227
1.18083334,332.4614868
1.182500124,331.6528931
1.18416667,332.1367493
1.185833335,332.9940796
1.1875,332.2261963
1.189166665,332.8496094
1.190833449,331.5117188
1.192499995,334.1871948
1.19416666,332.5065002
1.195833325,332.7592163
1.19749999,332.9038696
1.199166775,331.7106628
1.20083344,333.1066895
1.202499986,335.4676514
1.204166651,333.6740112
1.205833316,332.3840027
1.2075001,332.5149536
1.209166765,331.1203003
1.210833311,333.0843201
1.212499976,332.3612976
1.214166641,332.5991211
1.215833426,331.4760742
1.217500091,333.2210083
1.219166636,331.8857727
1.220833302,331.5032654
1.222499967,334.8250427
1.224166751,332.0609131
1.225833416,331.5598145
1.227500081,332.9289551
1.229166627,332.6434937
1.230833292,330.7253418
1.232500076,333.6295776
1.234166741,331.3650513
1.235833406,332.9145813
1.237499952,330.648407
1.239166617,333.4443359
1.240833402,333.1571045
1.242500067,332.9802551
1.244166732,331.1636963
1.245833278,331.8934326
1.247499943,331.9327087
1.249166727,333.1493835
1.250833392,333.1574707
1.252500057,333.2128906
1.254166722,333.3474426
1.255833268,332.6051941
1.257500052,331.9102783
1.259166718,334.3975525
1.260833383,332.8616028
1.262500048,333.2332153
1.264166594,332.6923828
1.265833378,332.4944153
1.267500043,334.7746887
1.269166708,332.7687988
1.270833373,332.9979858
1.272499919,331.9705505
1.274166703,332.4923706
1.275833368,336.4095154
1.277500033,337.230835
1.279166698,335.5876465
1.280833364,335.1637573
1.282500029,336.6040955
1.284166694,333.9381104
1.285833359,332.2952881
1.287500024,335.0316772
1.289166689,332.6199036
1.290833354,334.2971497
1.292500019,333.0108948
1.294166684,334.5708923
1.295833349,332.2489014
1.297500014,333.551239
1.299166799,333.2242737
1.300833344,334.0300293
1.30250001,333.5813599
1.304166675,333.2362671
1.30583334,334.6800232
1.307500124,334.1766663
1.30916667,333.2230225
1.310833335,333.4226379
1.3125,332.8117371
1.314166665,332.4772644
1.315833449,332.7423401
1.317499995,333.7720032
1.31916666,332.6422424
1.320833325,329.7205505
1.32249999,334.0126343
1.324166775,332.9672546
1.32583344,332.4330139
1.327499986,331.8880615
1.329166651,332.5669861
1.330833316,331.3486938
1.3325001,332.8330994
1.334166765,331.5135803
1.335833311,332.5586548
1.337499976,332.0270996
1.339166641,333.5722351
1.340833426,333.4964294
1.342500091,331.8457336
1.344166636,331.2880249
1.345833302,332.6299438
1.347499967,332.8431091
1.349166751,331.3106689
1.350833416,331.8202209
1.352500081,333.9569092
1.354166627,333.3015747
1.355833292,331.5802612
1.357500076,333.7966919
1.359166741,334.8773499
1.360833406,332.819397
1.362499952,333.3432922
1.364166617,331.8518982
1.365833402,333.1163025
1.367500067,332.2581787
1.369166732,333.6464844
1.370833278,333.4862061
1.372499943,332.3476563
1.374166727,330.8088074
1.375833392,330.3829041
1.377500057,335.5893555
1.379166722,334.1533508
1.380833268,331.8361511
1.382500052,333.2970886
1.384166718,331.7268982
1.385833383,334.4297485
1.387500048,332.8010559
1.389166594,333.0313416
1.390833378,333.208252
1.392500043,334.2497559
1.394166708,333.9434509
1.395833373,331.3414001
1.397499919,331.2868042
1.399166703,329.8231201
1.400833368,332.7145996
1.402500033,332.7686462
1.404166698,332.5836182
1.405833364,334.1297913
1.407500029,333.4071655
1.409166694,332.4634399
1.410833359,332.2277527
1.412500024,333.8009949
1.414166689,333.0572205
1.415833354,332.6960449
1.417500019,333.01297
1.419166684,333.0252686
1.420833349,332.9226685
1.422500014,334.0333557
1.424166799,333.1461182
1.425833344,332.3215027
1.42750001,332.9491882
1.429166675,331.1015625
1.43083334,332.6399536
1.432500124,334.8487549
1.43416667,331.9733887
1.435833335,331.0153198
1.4375,332.8043213
1.439166665,332.0000305
1.440833449,332.4713135
1.442499995,331.5982971
1.44416666,331.3215942
1.445833325,333.844696
1.44749999,332.9864502
1.449166775,333.0601807
1.45083344,333.1810608
1.452499986,331.5101929
1.454166651,332.0389404
1.455833316,333.0033569
1.4575001,333.8465271
1.459166765,331.0175476
1.460833311,334.1308899
1.462499976,330.9552307
1.464166641,332.9584351
1.465833426,332.3974609
1.467500091,335.0603943
1.469166636,332.5840759
1.470833302,332.3802185
1.472499967,332.7705688
1.474166751,332.8660889
1.475833416,332.8867188
1.477500081,332.1744995
1.479166627,334.725708
1.480833292,331.5420532
1.482500076,334.3583679
1.484166741,334.0569458
1.485833406,332.9367371
1.487499952,332.9508972
1.489166617,333.3252258
1.490833402,333.939209
1.492500067,331.6566467
1.494166732,332.274292
1.495833278,333.8236084
1.497499943,332.5029602
1.499166727,334.0936279
1.500833392,332.0536804
1.502500057,330.8746948
1.504166722,334.1947327
1.505833268,331.7806091
1.507500052,333.146637
1.509166718,332.8993835
1.510833383,334.241272
1.512500048,332.4809265
1.514166594,331.4567261
1.515833378,332.7870178
1.517500043,333.2527161
1.519166708,332.1366882
1.520833373,331.3887329
1.522499919,334.0903625
1.524166703,332.8691406
1.525833368,332.3143005
1.527500033,334.977478
1.529166698,332.1443176
1.530833364,331.6158142
1.532500029,334.2405701
1.534166694,331.3526917
1.535833359,333.3353271
1.537500024,331.3733826
1.539166689,331.9698486
1.540833354,332.7946167
1.542500019,331.5362854
1.544166684,333.3373413
1.545833349,332.877655
1.547500014,333.1360474
1.549166799,332.930481
1.550833344,333.1500244
1.55250001,332.3529053
1.554166675,332.9945679
1.55583334,331.7097473
1.557500124,332.2573547
1.55916667,333.2014771
1.560833335,332.5379333
1.5625,332.7009277
1.564166665,331.8566895
1.565833449,333.0270081
1.567499995,332.5601807
1.56916666,331.9943542
1.570833325,333.6368408
1.57249999,332.7870789
1.574166775,334.0022583
1.57583344,332.3657227
1.577499986,330.5950317
1.579166651,331.3033142
1.580833316,332.400238
1.5825001,333.5226135
1.584166765,332.5715027
1.585833311,332.7805786
1.587499976,332.3026733
1.589166641,333.8276672
1.590833426,332.4381104
1.592500091,331.6148071
1.594166636,331.2749939
1.595833302,332.4606018
1.597499967,332.6388855
1.599166751,331.2506409
1.600833416,333.5848389
1.602500081,332.5757141
1.604166627,332.3455811
1.605833292,332.8774719
1.607500076,331.3519592
1.609166741,334.5360107
1.610833406,332.5970764
1.612499952,334.0942993
1.614166617,332.1031799
1.615833402,332.9475708
1.617500067,332.9396362
1.619166732,332.6565857
1.620833278,335.9745178
1.622499943,332.5923767
1.624166727,334.4477844
1.625833392,332.6836853
1.627500057,333.2648926
1.629166722,332.194458
1.630833268,332.0926819
1.632500052,332.5579224
1.634166718,333.4801636
1.635833383,331.9616699
1.637500048,333.1045837
1.639166594,332.7672424
1.640833378,332.683197
1.642500043,331.3477478
1.644166708,332.3328247
1.645833373,331.4764404
1.647499919,332.7714844
1.649166703,332.708252
1.650833368,333.1201782
1.652500033,333.3554688
1.654166698,332.3860779
1.655833364,334.0574646
1.657500029,334.9190674
1.659166694,331.8796082
1.660833359,333.3433838
1.662500024,332.3621216
1.664166689,330.254425
1.665833354,331.5740662
1.667500019,333.8482056
1.669166684,333.129303
1.670833349,333.1984253
1.672500014,333.3049927
1.674166799,333.625061
1.675833344,333.0993958
1.67750001,331.4998474
1.679166675,331.2727966
1.68083334,334.6256409
1.682500124,331.6801147
1.68416667,333.4308472
1.685833335,331.7266235
1.6875,334.2271118
1.689166665,332.4279175
1.690833449,332.7320251
1.692499995,333.4761963
1.69416666,331.7371216
1.695833325,332.9213257
1.69749999,332.7989502
1.699166775,331.4812927
1.70083344,333.1395264
1.702499986,332.9527588
1.704166651,333.2917786
1.705833316,334.2171631
1.7075001,332.4098816
1.709166765,334.3970642
1.710833311,332.6074219
1.712499976,334.6132202
1.714166641,331.4622803
1.715833426,332.2218018
1.717500091,333.4861755
1.719166636,333.7228088
1.720833302,333.0907593
1.722499967,333.5032043
1.724166751,332.5405273
1.725833416,332.1080627
1.727500081,333.1781311
1.729166627,333.9191589
1.730833292,334.8620605
1.732500076,331.7063599
1.734166741,332.2686768
1.735833406,330.2545776
1.737499952,332.6217041
1.739166617,330.4786072
1.740833402,332.3622742
1.742500067,331.284729
1.744166732,331.494812
1.745833278,333.9431458
1.747499943,331.814209
1.749166727,333.2085571
1.750833392,333.1654053
1.752500057,332.4460449
1.754166722,335.8621521
1.755833268,332.578186
1.757500052,331.9010925
1.759166718,330.3554993
1.760833383,332.3117676
1.762500048,333.7785645
1.764166594,331.006134
1.765833378,334.1411743
1.767500043,335.5904236
1.769166708,330.3842773
1.770833373,332.1299744
1.772499919,332.9007874
1.774166703,332.6090698
1.775833368,333.6911621
1.777500033,333.2301941
1.779166698,333.3815918
1.780833364,331.5103455
1.782500029,331.5272217
1.784166694,331.600769
1.785833359,332.1700745
1.787500024,331.0968628
1.789166689,332.9024963
1.790833354,331.2867432
1.792500019,331.3400879
1.794166684,330.9465942
1.795833349,332.8244934
1.797500014,334.0563354
1.799166799,331.7212219
1.800833344,332.6887207
1.80250001,332.3382874
1.804166675,331.1515503
1.80583334,332.5515137
1.807500124,329.7355042
1.80916667,333.1121216
1.810833335,331.0804443
1.8125,334.403595
1.814166665,333.3575439
1.815833449,332.6564636
1.817499995,333.9727173
1.81916666,330.8120422
1.820833325,331.6748047
1.82249999,333.4881592
1.824166775,333.8779297
1.82583344,333.3747864
1.827499986,332.0567322
1.829166651,334.2053528
1.830833316,333.2646484
1.8325001,332.718811
1.834166765,331.5390625
1.835833311,332.4070435
1.837499976,330.3322144
1.839166641,331.2451782
1.840833426,333.6878357
1.842500091,332.7443848
1.844166636,332.1495667
1.845833302,332.7577515
1.847499967,332.7327881
1.849166751,330.4759216
1.850833416,331.1933289
1.852500081,332.607666
1.854166627,333.081665
1.855833292,334.9597778
1.857500076,331.7081604
1.859166741,331.8826294
1.860833406,333.0377197
1.862499952,332.3306885
1.864166617,331.1379089
1.865833402,332.3276367
1.867500067,331.56073
1.869166732,331.2651367
1.870833278,333.2530823
1.872499943,330.8008728
1.874166727,331.1971741
1.875833392,333.013855
1.877500057,331.0205688
1.879166722,332.202301
1.880833268,332.7572021
1.882500052,332.09375
1.884166718,332.678894
1.885833383,329.7423096
1.887500048,331.0581055
1.889166594,332.5289917
1.890833378,330.559967
1.892500043,332.7215881
1.894166708,331.1062012
1.895833373,334.714325
1.897499919,332.1140747
1.899166703,332.9623718
1.900833368,333.2794189
1.902500033,334.1365051
1.904166698,332.4378357
1.905833364,332.377655
1.907500029,332.4056396
1.909166694,330.5672913
1.910833359,332.8167419
1.912500024,332.0344238
1.914166689,334.8860474
1.915833354,332.0834045
1.917500019,332.8553162
1.919166684,334.1105652
1.920833349,332.9329529
1.922500014,332.7272644
1.924166799,331.8974609
1.925833344,331.7672729
1.92750001,333.4034119
1.929166675,332.521637
1.93083334,331.3661804
1.932500124,332.4280701
1.93416667,332.0076599
1.935833335,333.7886353
1.9375,332.9197083
1.939166665,329.5306396
1.940833449,332.1125793
1.942499995,331.7162476
1.94416666,333.0914001
1.945833325,332.8424683
1.94749999,331.2836304
1.949166775,332.1297302
1.95083344,332.7614746
1.952499986,332.9094543
1.954166651,331.3126221
1.955833316,330.4881287
1.9575001,332.1181335
1.959166765,333.032959
1.960833311,331.3684998
1.962499976,334.8267822
1.964166641,331.5196228
1.965833426,332.7344666
1.967500091,331.803009
1.969166636,330.1784058
1.970833302,332.2786255
1.972499967,332.7699585
1.974166751,331.7477417
1.975833416,332.9860229
1.977500081,332.9198608
1.979166627,333.1863098
1.980833292,332.7601929
1.982500076,332.0327454
1.984166741,333.8311768
1.985833406,330.5422363
1.987499952,332.1140137
1.989166617,331.9906311
1.990833402,331.833313
1.992500067,332.1523438
1.994166732,333.7185059
1.995833278,331.6715393
1.997499943,333.3776245
1.999166727,331.9691772
2.000833273,331.7790222
2.002500057,330.9662781
2.004166603,331.3434143
2.005833387,330.8140869
2.007500172,332.8757629
2.009166718,333.2086182
2.010833263,333.0181885
2.012500048,333.3171082
2.014166594,333.1628418
2.015833378,332.9681091
2.017500162,332.1625977
2.019166708,334.0608215
2.020833254,333.6961975
2.022500038,334.091095
2.024166822,333.8598328
2.025833368,332.9219971
2.027499914,332.196228
2.029166698,334.0498657
2.030833244,332.9854736
2.032500029,332.0293884
2.034166813,331.06073
2.035833359,333.1405945
2.037499905,332.7038574
2.039166689,331.8306885
2.040833473,331.4255676
2.042500019,333.6768188
2.044166803,330.2133789
2.045833349,332.3482666
2.047499895,331.6321716
2.049166679,333.7925415
2.050833464,331.3408508
2.05250001,332.1820374
2.054166555,332.0993958
2.05583334,331.859375
2.057500124,333.1217041
2.05916667,331.3526001
2.060833454,333.2055054
2.0625,333.555603
2.064166546,332.4541321
2.06583333,332.0052795
2.067500114,331.6057739
2.06916666,330.8773804
2.070833445,331.6071777
2.07249999,330.9680481
2.074166775,331.447937
2.075833321,330.3604736
2.077500105,334.0766296
2.079166651,331.6446533
2.080833197,332.107666
2.082499981,332.1421204
2.084166765,334.1135254
2.085833311,331.7591553
2.087500095,332.173584
2.089166641,332.8307495
2.090833426,333.9337769
2.092499971,331.6358032
2.094166756,330.519989
2.095833302,332.0788574
2.097500086,333.272583
2.099166632,333.0751038
2.100833416,332.6142578
2.102499962,332.8446655
2.104166746,332.1719666
2.105833292,333.6188354
2.107500076,333.2637634
2.109166622,333.9580383
2.110833406,333.7613525
2.112499952,333.5862732
2.114166737,331.3806458
2.115833521,332.4035645
2.117500067,332.2409973
2.119166613,333.0184326
2.120833397,331.6082153
2.122499943,334.3835754
2.124166727,332.7053223
2.125833273,335.1691895
2.127500057,331.3748474
2.129166603,333.1546021
2.130833387,330.6968994
2.132500172,331.3547668
2.134166718,333.1488037
2.135833502,331.3560486
2.137500048,333.1871948
2.139166832,331.309906
2.140833378,333.5809326
2.142500162,333.1805725
2.144166708,332.3272095
2.145833254,332.183197
2.147500038,331.3569641
2.149166584,334.0489502
2.150833368,332.7564697
2.152500153,332.6713562
2.154166698,330.1601257
2.155833483,334.3349915
2.157500029,332.6697388
2.159166813,333.7549438
2.160833597,332.6559143
2.162499905,334.9148865
2.164166689,331.4963684
2.165833235,331.4008484
2.167500019,331.587738
2.169166803,332.684967
2.170833349,331.3910217
2.172500134,332.0770874
2.174166679,331.8188477
2.175833464,331.6023254
2.177500248,331.4295654
2.179166555,331.3869324
2.18083334,332.3733215
2.182499886,331.2376099
2.18416667,330.9237061
2.185833454,332.0139771
2.1875,332.5358276
2.189166784,331.4046326
2.19083333,331.0906372
2.192500114,332.2062988
2.194166899,331.6950073
2.195833445,331.0218811
2.19749999,331.6686096
2.199166536,333.639801
2.200833321,332.2657471
2.202500105,331.2311096
2.204166651,333.303894
2.205833435,331.0438843
2.207499981,331.8591309
2.209166765,331.7435303
2.210833549,333.3114624
2.212500095,332.6191711
2.21416688,332.1101074
2.215833187,332.9134521
2.217499971,330.6777039
2.219166756,332.071106
2.220833302,333.1166382
2.222500086,332.2724304
2.224166632,330.3108826
2.225833416,333.2366638
2.2275002,332.124939
2.229166746,332.1732483
2.23083353,330.4970398
2.232499838,331.4382935
2.234166622,333.3079529
2.235833406,331.0867004
2.237499952,333.2175293
2.239166737,330.9330139
2.240833282,332.149353
2.242500067,332.0856628
2.244166851,331.2977905
2.245833397,330.7766113
2.247500181,331.0777283
2.249166727,332.4197083
2.250833273,332.7194519
2.252500057,331.5567627
2.254166603,332.7746277
2.255833387,332.6315613
2.257499933,330.7357483
2.259166718,329.1284485
2.260833502,331.4935913
2.262500048,333.2919922
2.264166832,329.8147583
2.265833378,331.0403748
2.267500162,333.7637329
2.269166708,331.5754089
2.270833254,332.5222168
2.272500038,331.5874939
2.274166584,333.0031738
2.275833368,331.3935547
2.277500153,330.6244202
2.279166698,330.6359863
2.280833483,330.7371216
2.282500029,331.1575317
2.284166813,331.4299316
2.285833597,331.4281006
2.287499905,332.0566711
2.289166689,331.9649963
2.290833235,332.9210815
2.292500019,332.1843262
2.294166803,331.3714905
2.295833349,331.6552124
2.297500134,334.3708496
2.299166679,332.7426758
2.300833464,331.5401001
2.302500248,332.6480408
2.304166555,331.2848816
2.30583334,334.1992188
2.307499886,331.0995789
2.30916667,332.9841309
2.310833454,333.0662842
2.3125,332.4763794
2.314166784,331.6153259
2.31583333,333.3983765
2.317500114,331.9148254
2.319166899,332.7113037
2.320833445,332.4104614
2.32249999,331.1288147
2.324166536,332.6460876
2.325833321,331.615509
2.327500105,331.5726013
2.329166651,332.2713013
2.330833435,330.8583069
2.332499981,333.6490479
2.334166765,332.9577637
2.335833549,332.2870483
2.337500095,331.5530701
2.33916688,331.8545227
2.340833187,331.4140015
2.342499971,329.7938232
2.344166756,331.4760437
2.345833302,331.7449341
2.347500086,332.015625
2.349166632,331.418335
2.350833416,330.7076416
2.3525002,333.5559387
2.354166746,332.4611511
2.35583353,332.4224548
2.357499838,333.2402344
2.359166622,332.3399658
2.360833406,331.7135315
2.362499952,330.4992981
2.364166737,330.723999
2.365833282,332.0753784
2.367500067,332.6424255
2.369166851,331.3410645
2.370833397,333.1279907
2.372500181,332.1551819
2.374166727,330.8061829
2.375833273,332.9494324
2.377500057,330.0860901
2.379166603,333.8870239
2.380833387,330.0151367
2.382499933,331.6520691
2.384166718,332.9174194
2.385833502,330.3835144
2.387500048,333.0648499
2.389166832,331.0361328
2.390833378,331.6080627
2.392500162,332.3919678
2.394166708,330.9856262
2.395833254,332.7496948
2.397500038,330.7243958
2.399166584,331.9911194
2.400833368,331.3787231
2.402500153,332.5117798
2.404166698,333.8249817
2.405833483,332.2337341
2.407500029,332.8758545
2.409166813,331.218811
2.410833597,331.2741699
2.412499905,334.0386353
2.414166689,333.5230103
2.415833235,333.3213501
2.417500019,331.6995239
2.419166803,333.7883911
2.420833349,332.313385
2.422500134,330.476532
2.424166679,331.1983337
2.425833464,332.5575256
2.427500248,332.9588013
2.429166555,332.2281494
2.43083334,331.7844849
2.432499886,333.3114624
2.43416667,334.5895691
2.435833454,331.3141479
2.4375,333.3451843
2.439166784,331.7279968
2.44083333,332.9093323
2.442500114,332.7553711
2.444166899,331.6003113
2.445833445,332.4248047
2.44749999,331.8326721
2.449166536,330.7930298
2.450833321,332.8953247
2.452500105,330.4830017
2.454166651,331.7626038
2.455833435,333.4093018
2.457499981,333.7628784
2.459166765,332.2353821
2.460833549,331.3856506
2.462500095,332.2170105
2.46416688,333.5420532
2.465833187,331.2681885
2.467499971,332.5997314
2.469166756,332.7251587
2.470833302,333.7980347
2.472500086,332.0254211
2.474166632,332.1023865
2.475833416,333.1498108
2.4775002,331.2327881
2.479166746,333.8295593
2.48083353,331.40625
2.482499838,333.8381958
2.484166622,332.4049988
2.485833406,333.6608276
2.487499952,332.6095886
2.489166737,331.9145813
2.490833282,332.1900024
2.492500067,331.2219543
2.494166851,334.6590271
2.495833397,331.7132263
2.497500181,332.7876892
2.499166727,334.1436462
2.500833273,331.7394104
2.502500057,332.1268005
2.504166603,335.5815735
2.505833387,332.2335205
2.507499933,333.7344666
2.509166718,304.829834
2.510833502,300.5862732
2.512500048,284.8298645
2.514166832,280.3172302
2.515833378,283.0668335
2.517500162,270.8623352
2.519166708,295.5640564
2.520833254,314.5903625
2.522500038,313.1082153
2.524166584,315.9255981
2.525833368,311.6900024
2.527500153,311.9162292
2.529166698,311.542572
2.530833483,314.3563538
2.532500029,311.888092
2.534166813,315.5541992
2.535833597,314.6128845
2.537499905,292.0233154
2.539166689,314.3647461
2.540833235,283.7541504
2.542500019,308.5285645
2.544166803,300.708313
2.545833349,312.0658875
2.547500134,322.0329895
2.549166679,306.0530701
2.550833464,289.3164063
2.552500248,315.1004639
2.554166555,286.6575317
2.55583334,304.035553
2.557499886,308.5180969
2.55916667,295.6255493
2.560833454,314.5741882
2.5625,300.9719849
2.564166784,290.5780945
2.56583333,316.6963501
2.567500114,321.0981445
2.569166899,319.9964294
2.570833445,319.3450928
2.57249999,317.9936218
2.574166536,317.4468384
2.575833321,318.1580811
2.577500105,319.0455017
2.579166651,316.3454285
2.580833435,316.9432983
2.582499981,317.0743408
2.584166765,317.4992981
2.585833549,317.295166
2.587500095,317.0217285
2.58916688,315.3867798
2.590833187,316.4326477
2.592499971,315.6560364
2.594166756,314.2403259
2.595833302,314.2806702
2.597500086,315.7587891
2.599166632,315.1915588
2.600833416,314.6277161
2.6025002,315.700531
2.604166746,314.3558044
2.60583353,314.986145
2.607499838,314.6708679
2.609166622,316.0534973
2.610833406,314.0976257
2.612499952,312.8840637
2.614166737,313.9694824
2.615833282,313.0767517
2.617500067,312.910553
2.619166851,312.5089417
2.620833397,312.4373779
2.622500181,313.5911255
2.624166727,314.1079712
2.625833273,312.5040588
2.627500057,312.6273499
2.629166603,311.8760376
2.630833387,313.0118408
2.632499933,310.9544983
2.634166718,311.1930847
2.635833502,311.3049011
2.637500048,312.6442566
2.639166832,311.1888123
2.640833378,310.05896
2.642500162,311.3934326
2.644166708,312.1394348
2.645833254,312.0816345
2.647500038,311.274292
2.649166584,311.5050354
2.650833368,311.1625977
2.652500153,311.5415649
2.654166698,312.1734924
2.655833483,310.5809326
2.657500029,309.1515198
2.659166813,311.8135986
2.660833597,310.2313538
2.662499905,310.8970947
2.664166689,312.8648376
2.665833235,311.0663452
2.667500019,309.5679932
2.669166803,307.8146057
2.670833349,310.572113
2.672500134,310.2967224
2.674166679,308.607605
2.675833464,308.3465576
2.677500248,309.8700562
2.679166555,308.9031372
2.68083334,308.7472839
2.682499886,308.1166382
2.68416667,308.8085632
2.685833454,309.5077515
2.6875,309.0466614
2.689166784,308.4906006
2.69083333,307.1798706
2.692500114,308.5914307
2.694166899,308.3594971
2.695833445,307.4247437
2.69749999,307.3849792
2.699166536,307.6398621
2.700833321,309.1712036
2.702500105,308.4761963
2.704166651,308.7337341
2.705833435,308.6833191
2.707499981,308.7506104
2.709166765,307.1625977
2.710833549,305.3578796
2.712500095,307.1115417
2.71416688,305.9401855
2.715833187,307.5318909
2.717499971,308.2093506
2.719166756,307.3288269
2.720833302,307.5393066
2.722500086,307.1268921
2.724166632,306.0915833
2.725833416,307.7384949
2.7275002,308.5169373
2.729166746,307.6465454
2.73083353,307.2520752
2.732499838,306.6960144
2.734166622,305.2099304
2.735833406,306.9423218
2.737499952,305.4130249
2.739166737,304.415802
2.740833282,306.372467
2.742500067,305.5481873
2.744166851,306.5488281
2.745833397,308.3184814
2.747500181,307.3931885
2.749166727,306.7004089
2.750833273,306.4663696
2.752500057,306.7546997
2.754166603,308.2842102
2.755833387,307.499054
2.757499933,305.5248108
2.759166718,306.018158
2.760833502,304.6565247
2.762500048,304.3670349
2.764166832,306.5170898
2.765833378,306.4281311
2.767500162,306.879303
2.769166708,305.6852417
2.770833254,305.8888855
2.772500038,306.04422
2.774166584,305.4317932
2.775833368,306.2954102
2.777500153,304.7555542
2.779166698,305.4072876
2.780833483,307.6522827
2.782500029,304.3514404
2.784166813,305.6526184
2.785833597,304.1913757
2.787499905,306.1329956
2.789166689,306.9386292
2.790833235,304.7118225
2.792500019,305.4805298
2.794166803,304.2897949
2.795833349,304.2729492
2.797500134,304.9436035
2.799166679,306.2557678
2.800833464,306.6304016
2.802500248,304.7668762
2.804166555,306.3453369
2.80583334,304.791687
2.807499886,306.0724792
2.80916667,305.9526978
2.810833454,303.5952148
2.8125,307.2921143
2.814166784,303.2433167
2.81583333,305.3385315
2.817500114,303.3440857
2.819166899,305.3552551
2.820833445,303.9215698
2.82249999,304.4832153
2.824166536,304.8167725
2.825833321,304.3623657
2.827500105,303.5308228
2.829166651,304.09375
2.830833435,303.9632263
2.832499981,304.2904663
2.834166765,304.9015808
2.835833549,304.1629639
2.837500095,304.5948181
2.83916688,305.1670227
2.840833187,303.6645508
2.842499971,304.2406006
2.844166756,304.6617432
2.845833302,304.5873413
2.847500086,304.5715332
2.849166632,307.8645935
2.850833416,303.6123352
2.8525002,303.0223083
2.854166746,303.4214478
2.85583353,305.6213074
2.857499838,304.0795898
2.859166622,302.7764587
2.860833406,304.3368835
2.862499952,303.4544067
2.864166737,302.3782959
2.865833282,303.9625854
2.867500067,303.4226685
2.869166851,303.1921997
2.870833397,302.8739319
2.872500181,302.1166992
2.874166727,302.9788208
2.875833273,302.6891785
2.877500057,303.2770081
2.879166603,303.1853638
2.880833387,304.0812988
2.882499933,303.8244324
2.884166718,301.2174377
2.885833502,302.2167358
2.887500048,302.0089111
2.889166832,300.4645081
2.890833378,303.4538574
2.892500162,301.9631348
2.894166708,303.7751465
2.895833254,303.485199
2.897500038,302.0770264
2.899166584,303.402771
2.900833368,304.2520447
2.902500153,302.6870117
2.904166698,303.078125
2.905833483,303.2807007
2.907500029,301.6697083
2.909166813,302.120575
2.910833597,302.5632324
2.912499905,302.6159058
2.914166689,305.3625488
2.915833235,301.9069214
2.917500019,303.0872803
2.919166803,302.5545044
2.920833349,303.6088257
2.922500134,302.0200195
2.924166679,303.8433838
2.925833464,302.4598083
2.927500248,303.0227356
2.929166555,302.2550964
2.93083334,303.1533813
2.932499886,300.6995544
2.93416667,301.3063965
2.935833454,301.5584106
2.9375,302.6970825
2.939166784,301.871582
2.94083333,304.4806824
2.942500114,301.3262329
2.944166899,301.7950134
2.945833445,302.6402588
2.94749999,301.5227661
2.949166536,303.4956055
2.950833321,300.9137268
2.952500105,303.8717651
2.954166651,301.949707
2.955833435,303.177887
2.957499981,299.9772034
2.959166765,301.6624146
2.960833549,302.289032
2.962500095,302.4014282
2.96416688,300.1931458
2.965833187,301.5123901
2.967499971,300.393158
2.969166756,301.4845276
2.970833302,304.1261902
2.972500086,302.6979675
2.974166632,303.3323975
2.975833416,304.0035095
2.9775002,304.5366211
2.979166746,302.2929993
2.98083353,301.2188721
2.982499838,302.3123779
2.984166622,301.4849548
2.985833406,301.8792419
2.987499952,302.846344
2.989166737,302.9666138
2.990833282,301.5766907
2.992500067,302.055481
2.994166851,300.9489746
2.995833397,301.472168
2.997500181,302.6505737
2.999166727,301.1799011
3.000833273,302.9631653
3.002500057,299.6285706
3.004166603,301.3357544
3.005833387,301.4226685
3.007499933,301.366272
3.009166718,300.6395874
3.010833502,301.1940308
3.012500048,301.9082642
3.014166832,302.8660889
3.015833378,301.5040283
3.017500162,300.7209778
3.019166708,301.6527405
3.020833254,300.2475281
3.022500038,300.9038696
3.024166584,299.7332458
3.025833368,302.7507324
3.027500153,301.9093018
3.029166698,302.1425171
3.030833483,302.1321716
3.032500029,301.1938782
3.034166813,300.1900024
3.035833597,300.4552612
3.037499905,302.0996399
3.039166689,300.6954956
3.040833235,302.2023621
3.042500019,299.8861694
3.044166803,300.0523071
3.045833349,301.4104309
3.047500134,300.6935425
3.049166679,301.9334106
3.050833464,300.3485413
3.052500248,299.9016418
3.054166555,300.0538635
3.05583334,301.5731812
3.057499886,301.7067566
3.05916667,301.2950439
3.060833454,298.1817627
3.0625,302.8431091
3.064166784,301.8633728
3.06583333,299.9239502
3.067500114,302.3112183
3.069166899,300.7780457
3.070833445,300.4610596
3.07249999,300.2667542
3.074166536,301.6001282
3.075833321,301.0526733
3.077500105,301.6850281
3.079166651,301.0907288
3.080833435,300.7689209
3.082499981,299.3522339
3.084166765,299.4823608
3.085833549,301.0862732
3.087500095,300.6967468
3.08916688,300.1919861
3.090833187,300.4187622
3.092499971,301.5398865
3.094166756,300.0195923
3.095833302,300.991333
3.097500086,302.0500183
3.099166632,300.405365
3.100833416,302.0028687
3.1025002,301.1906738
3.104166746,300.8808289
3.10583353,299.7193909
3.107499838,299.7033081
3.109166622,300.9989014
3.110833406,300.3641968
3.112499952,299.7160645
3.114166737,301.7813721
3.115833282,299.9964294
3.117500067,299.1156616
3.119166851,299.7891846
3.120833397,299.4343872
3.122500181,300.0153503
3.124166727,300.3269043
3.125833273,299.9017334
3.127500057,300.0780029
3.129166603,301.3597107
3.130833387,299.5751648
3.132499933,299.3270874
3.134166718,300.1291504
3.135833502,300.0504456
3.137500048,301.1451111
3.139166832,300.4814148
3.140833378,298.0437927
3.142500162,300.0089111
3.144166708,299.6335754
3.145833254,300.8158264
3.147500038,301.8039551
3.149166584,300.1356506
3.150833368,300.03479
3.152500153,299.7396545
3.154166698,299.6299438
3.155833483,298.7489319
3.157500029,300.8496704
3.159166813,299.5472412
3.160833597,301.4967957
3.162499905,299.8908997
3.164166689,299.0627747
3.165833235,298.9598694
3.167500019,299.4442749
3.169166803,299.9833374
3.170833349,298.4538879
3.172500134,300.8599243
3.174166679,299.7516785
3.175833464,300.8941345
3.177500248,299.0774536
3.179166555,298.989624
3.18083334,300
3.182499886,300.7435608
3.18416667,300.4745178
3.185833454,299.1644592
3.1875,300.1285706
3.189166784,301.3347778
3.19083333,300.6167297
3.192500114,300.4563293
3.194166899,301.1377258
3.195833445,299.7865295
3.19749999,299.5510254
3.199166536,300.2294617
3.200833321,299.6400146
3.202500105,300.6976624
3.204166651,298.5989685
3.205833435,300.6428223
3.207499981,299.0881958
3.209166765,299.9349976
3.210833549,299.0288696
3.212500095,299.5872803
3.21416688,300.0913696
3.215833187,300.7669678
3.217499971,298.3595581
3.219166756,299.867157
3.220833302,300.344635
3.222500086,297.468689
3.224166632,301.4389343
3.225833416,301.1730347
3.2275002,300.1931458
3.229166746,297.9979553
3.23083353,298.3948669
3.232499838,299.4416809
3.234166622,300.4468994
3.235833406,298.352478
3.237499952,298.7810669
3.239166737,300.3664551
3.240833282,298.1936646
3.242500067,300.6567993
3.244166851,297.6791382
3.245833397,301.7940674
3.247500181,298.5802307
3.249166727,299.4078979
3.250833273,300.3139648
3.252500057,300.4078979
3.254166603,298.9162292
3.255833387,298.8781738
3.257499933,298.4691467
3.259166718,300.1042786
3.260833502,300.3256226
3.262500048,299.884613
3.264166832,299.6777039
3.265833378,298.5426331
3.267500162,301.3716431
3.269166708,298.4264832
3.270833254,300.2036438
3.272500038,298.4009399
3.274166584,299.6905518
3.275833368,299.1242065
3.277500153,301.374115
3.279166698,301.2627258
3.280833483,300.1021118
3.282500029,299.9151306
3.284166813,297.8050842
3.285833597,297.1244812
3.287499905,299.1194763
3.289166689,300.512207
3.290833235,300.3417969
3.292500019,297.8708191
3.294166803,299.1365662
3.295833349,300.0615234
3.297500134,299.3485413
3.299166679,298.4433899
3.300833464,298.9187012
3.302500248,299.1523132
3.304166555,299.2858887
3.30583334,298.0284729
3.307499886,299.3331604
3.30916667,297.9959412
3.310833454,299.2984619
3.3125,299.8920288
3.314166784,299.9786072
3.31583333,299.4080811
3.317500114,299.7333679
3.319166899,299.115448
3.320833445,299.4960327
3.32249999,299.9170227
3.324166536,298.0695801
3.325833321,300.032196
3.327500105,298.5345154
3.329166651,299.8204346
3.330833435,297.9040527
3.332499981,298.9054871
3.334166765,299.1552734
3.335833549,298.2169495
3.337500095,299.5263062
3.33916688,299.9576111
3.340833187,299.9101868
3.342499971,299.2268372
3.344166756,299.833374
3.345833302,298.6723328
3.347500086,301.1192017
3.349166632,299.0541687
3.350833416,298.8557129
3.3525002,298.3441467
3.354166746,299.2895813
3.35583353,300.171051
3.357499838,298.3339539
3.359166622,300.3356323
3.360833406,299.3789063
3.362499952,296.5445251
3.364166737,298.7034607
3.365833282,297.8877258
3.367500067,300.1572876
3.369166851,301.2116699
3.370833397,298.5083313
3.372500181,298.4275818
3.374166727,298.0194702
3.375833273,298.620697
3.377500057,297.9666443
3.379166603,297.7783813
3.380833387,299.2031555
3.382499933,298.6468811
3.384166718,299.042572
3.385833502,299.4145203
3.387500048,299.8492126
3.389166832,298.7991028
3.390833378,298.7680359
3.392500162,300.9898987
3.394166708,299.0446777
3.395833254,299.6118774
3.397500038,299.0079651
3.399166584,300.3891296
3.400833368,297.4306946
3.402500153,300.3610535
3.404166698,298.1563721
3.405833483,298.3241882
3.407500029,298.5456238
3.409166813,299.2391968
3.410833597,300.3044128
3.412499905,300.1373901
3.414166689,298.0341492
3.415833235,298.9668274
3.417500019,299.2948303
3.419166803,297.5335693
3.420833349,296.8269043
3.422500134,298.9356079
3.424166679,297.6484375
3.425833464,298.8757324
3.427500248,300.3620605
3.429166555,300.7538757
3.43083334,299.8857422
3.432499886,299.8398743
3.43416667,300.1090393
3.435833454,300.1841431
3.4375,299.553894
3.439166784,298.0145264
3.44083333,299.5727539
3.442500114,298.6010742
3.444166899,298.6198425
3.445833445,300.2715149
3.44749999,298.724823
3.449166536,298.2184448
3.450833321,301.3374329
3.452500105,299.7973633
3.454166651,300.0922852
3.455833435,297.0391235
3.457499981,300.7579346
3.459166765,299.9168701
3.460833549,299.743988
3.462500095,299.4064026
3.46416688,299.0821533
3.465833187,299.013855
3.467499971,298.5328674
3.469166756,299.6420898
3.470833302,299.4786377
3.472500086,298.8083801
3.474166632,298.1775513
3.475833416,299.7416077
3.4775002,297.6888733
3.479166746,298.5589294
3.48083353,298.1853943
3.482499838,301.1231689
3.484166622,299.0057373
3.485833406,298.589386
3.487499952,299.5737305
3.489166737,298.1933899
3.490833282,298.2689209
3.492500067,299.5774231
3.494166851,297.2863159
3.495833397,300.0394897
3.497500181,300.5433044
3.499166727,297.950531
3.500833273,297.4689331
3.502500057,298.1856079
3.504166603,296.7575684
3.505833387,298.6856079
3.507499933,297.6118774
3.509166718,300.1808472
3.510833502,301.1373596
3.512500048,299.6886597
3.514166832,298.25
3.515833378,297.5779724
3.517500162,299.2229919
3.519166708,297.5846252
3.520833254,299.5560913
3.522500038,299.7026367
3.524166584,297.5813599
3.525833368,297.7738037
3.527500153,299.9845276
3.529166698,299.5514221
3.530833483,298.5566406
3.532500029,299.1171265
3.534166813,298.659668
3.535833597,298.7827148
3.537499905,298.8686523
3.539166689,299.2676392
3.540833235,299.246521
3.542500019,296.6679688
3.544166803,297.5374451
3.545833349,298.5849915
3.547500134,298.6263123
3.549166679,298.1184082
3.550833464,297.9372253
3.552500248,299.5535889
3.554166555,298.6413269
3.55583334,298.5559998
3.557499886,297.5684509
3.55916667,296.665863
3.560833454,297.6683044
3.5625,298.5137939
3.564166784,299.237915
3.56583333,298.0131226
3.567500114,297.6697998
3.569166899,298.1593933
3.570833445,296.1271057
3.57249999,297.7880249
3.574166536,297.1520081
3.575833321,298.9989929
3.577500105,297.7791138
3.579166651,299.1652832
3.580833435,297.3895874
3.582499981,298.2150879
3.584166765,292.5212097
3.585833549,297.3577576
3.587500095,297.6382141
3.58916688,297.1181641
3.590833187,298.6425781
3.592499971,298.1575317
3.594166756,298.1428528
3.595833302,298.3619385
3.597500086,298.8313599
3.599166632,296.711853
3.600833416,298.9271545
3.6025002,301.519989
3.604166746,299.6720276
3.60583353,297.8096313
3.607499838,298.1622009
3.609166622,298.1357422
3.610833406,296.2659607
3.612499952,296.9972229
3.614166737,297.5670166
3.615833282,298.3892822
3.617500067,300.0370178
3.619166851,298.4779663
3.620833397,298.3985596
3.622500181,299.551239
3.624166727,297.6964722
3.625833273,298.3617554
3.627500057,295.8016968
3.629166603,297.6560974
3.630833387,297.914032
3.632499933,297.9187317
3.634166718,298.2533569
3.635833502,297.7791748
3.637500048,298.5973511
3.639166832,298.2927856
3.640833378,298.5123291
3.642500162,297.9549866
3.644166708,297.9360657
3.645833254,298.4052429
3.647500038,296.6583862
3.649166584,298.2025757
3.650833368,298.4180298
3.652500153,298.3877869
3.654166698,298.4564209
3.655833483,298.2185364
3.657500029,298.4342346
3.659166813,297.818512
3.660833597,298.9533386
3.662499905,297.3999939
3.664166689,299.0468445
3.665833235,298.6225891
3.667500019,296.8349609
3.669166803,298.3425598
3.670833349,296.6559143
3.672500134,296.0852966
3.674166679,297.914093
3.675833464,298.4873047
3.677500248,297.5594788
3.679166555,297.6912231
3.68083334,297.8661194
3.682499886,297.0098267
3.68416667,298.5144043
3.685833454,298.2003784
3.6875,298.0004883
3.689166784,297.0652161
3.69083333,298.7359924
3.692500114,296.8395081
3.694166899,298.0961914
3.695833445,296.6690369
3.69749999,297.9041443
3.699166536,298.5046692
3.700833321,297.4702454
3.702500105,297.5863342
3.704166651,297.1848755
3.705833435,298.6353149
3.707499981,298.1919861
3.709166765,297.6634827
3.710833549,296.8832397
3.712500095,299.2992554
3.71416688,298.0331421
3.715833187,295.5152588
3.717499971,296.4029541
3.719166756,299.5462646
3.720833302,298.8923035
3.722500086,297.3102112
3.724166632,297.8044739
3.725833416,298.9972839
3.7275002,297.3849182
3.729166746,297.7040405
3.73083353,298.474823
3.732499838,299.1226501
3.734166622,297.401062
3.735833406,296.2264099
3.737499952,297.9143982
3.739166737,297.2597351
3.740833282,297.2361145
3.742500067,296.2512817
3.744166851,297.6135559
3.745833397,298.20401
3.747500181,297.3397217
3.749166727,297.9135132
3.750833273,296.2744446
3.752500057,300.4729309
3.754166603,297.8768005
3.755833387,298.4702759
3.757499933,299.2271423
3.759166718,297.3943787
3.760833502,298.114502
3.762500048,296.825592
3.764166832,298.0110474
3.765833378,297.5545959
3.767500162,298.3420715
3.769166708,298.376709
3.770833254,295.9690552
3.772500038,298.6841431
3.774166584,297.203064
3.775833368,297.451416
3.777500153,298.5864258
3.779166698,295.546875
3.780833483,296.7753906
3.782500029,296.9462891
3.784166813,297.4674377
3.785833597,297.1784363
3.787499905,298.3713379
3.789166689,297.9065857
3.790833235,295.9102478
3.792500019,297.5834045
3.794166803,297.6205139
3.795833349,297.9786682
3.797500134,298.0105286
3.799166679,297.765625
3.800833464,297.613739
3.802500248,298.6161194
3.804166555,297.4876404
3.80583334,297.9270935
3.807499886,299.4602661
3.80916667,298.1299744
3.810833454,297.0215454
3.8125,299.1648254
3.814166784,299.3487854
3.81583333,295.1246033
3.817500114,297.3511047
3.819166899,297.7650757
3.820833445,300.2889709
3.82249999,298.0205688
3.824166536,298.0496826
3.825833321,296.2059937
3.827500105,297.5157471
3.829166651,297.3892822
3.830833435,298.4332581
3.832499981,295.8693848
3.834166765,298.3071289
3.835833549,297.7311707
3.837500095,297.0011902
3.83916688,297.4990234
3.840833187,297.9734802
3.842499971,297.3192749
3.844166756,298.2561035
3.845833302,298.1585999
3.847500086,296.7461243
3.849166632,297.0873718
3.850833416,299.1763
3.8525002,297.7581177
3.854166746,297.8398132
3.85583353,296.5241089
3.857499838,300.2644348
3.859166622,297.4433594
3.860833406,299.1370544
3.862499952,297.4032593
3.864166737,297.3927917
3.865833282,296.763092
3.867500067,297.2573547
3.869166851,295.8147888
3.870833397,298.7797546
3.872500181,296.7314758
3.874166727,297.0483398
3.875833273,297.5289917
3.877500057,297.8467102
3.879166603,298.6021118
3.880833387,298.187439
3.882499933,298.4522705
3.884166718,297.0944519
3.885833502,296.7874146
3.887500048,296.4814453
3.889166832,296.9344177
3.890833378,296.5249023
3.892500162,297.4605408
3.894166708,298.5986023
3.895833254,298.0121155
3.897500038,299.1412048
3.899166584,297.8309631
3.900833368,295.618866
3.902500153,298.5223694
3.904166698,296.5096741
3.905833483,297.6204224
3.907500029,298.2952881
3.909166813,298.2697144
3.910833597,298.5300903
3.912499905,298.2409363
3.914166689,295.4614258
3.915833235,297.5283813
3.917500019,297.2084045
3.919166803,298.1292114
3.920833349,297.6500244
3.922500134,298.5820007
3.924166679,296.8547363
3.925833464,298.3375244
3.927500248,296.5456543
3.929166555,298.1422119
3.93083334,298.5597534
3.932499886,297.2865295
3.93416667,297.3904724
3.935833454,298.4518738
3.9375,298.9516907
3.939166784,298.5039673
3.94083333,296.7879028
3.942500114,298.6420898
3.944166899,297.7102356
3.945833445,295.6729126
3.94749999,296.8885803
3.949166536,297.0142822
3.950833321,297.2906189
3.952500105,297.6807251
3.954166651,297.2624817
3.955833435,298.8600769
3.957499981,298.3300171
3.959166765,294.9380798
3.960833549,296.655426
3.962500095,297.7984314
3.96416688,298.6535034
3.965833187,297.6904297
3.967499971,297.6193237
3.969166756,297.7180481
3.970833302,298.1730042
3.972500086,296.022583
3.974166632,298.631073
3.975833416,297.9538269
3.9775002,295.4009399
3.979166746,297.4981995
3.98083353,297.4824219
3.982499838,297.4403381
3.984166622,295.6616211
3.985833406,297.4137573
3.987499952,296.7568665
3.989166737,297.3527222
3.990833282,295.8552551
3.992500067,297.6265869
3.994166851,298.2010193
3.995833397,298.5325317
3.997500181,297.5341187
3.999166727,296.1470947
4.000833511,297.3183899
4.002500057,298.2129822
4.004166603,297.2698364
4.005833626,296.6004639
4.007500172,297.7736206
4.009166718,296.4315186
4.010833263,298.4007263
4.012499809,296.9483032
4.014166832,298.8535461
4.015833378,297.0437012
4.017499924,296.0734253
4.019166946,296.7828064
4.020833492,298.9234924
4.022500038,297.6613464
4.024166584,297.3756104
4.025833607,298.1755371
4.027500153,295.2719421
4.029166698,297.7262268
4.030833244,299.7242126
4.03249979,296.8641968
4.034166813,298.6420593
4.035833359,296.9183044
4.037499905,295.0090332
4.039166927,298.0455322
4.040833473,298.7075195
4.042500019,295.4209595
4.044167042,297.6275635
4.045833111,297.5316467
4.047500134,295.7180786
4.049166679,296.9326172
4.050833225,296.8059692
4.052500248,297.9819946
4.054166794,298.1451111
4.05583334,296.7950439
4.057499886,295.5649719
4.059166908,296.3279724
4.060833454,296.5076599
4.0625,297.1404419
4.064166546,298.4919128
4.065833092,296.8430481
4.067500114,298.056427
4.06916666,296.8314819
4.070833206,296.8664246
4.072500229,298.112915
4.074166775,297.31427
4.075833321,297.3790588
4.077500343,297.7651062
4.079166889,297.3031616
4.080833435,296.6523132
4.082499981,296.8034363
4.084166527,298.3874817
4.085833549,297.0636292
4.087500095,297.7571411
4.089166641,297.5915833
4.090833187,295.8285522
4.09250021,295.8644714
4.094166756,299.2568665
4.095833302,297.4741211
4.097500324,298.0355225
4.099166393,297.2326355
4.100833416,299.1732178
4.102499962,297.3591919
4.104166508,297.1242981
4.10583353,296.3800964
4.107500076,296.9563904
4.109166622,296.3046265
4.110833645,295.9692993
4.112500191,294.9162903
4.114166737,297.0131836
4.115833282,296.2747192
4.117499828,296.6095886
4.119166851,298.0993958
4.120833397,298.0264587
4.122499943,295.0089111
4.124166489,298.5821228
4.125833511,296.3538208
4.127500057,297.0223694
4.129166603,296.1773071
4.130833626,295.526001
4.132500172,298.4042664
4.134166718,298.1385803
4.135833263,297.9570923
4.137499809,297.2661133
4.139166832,300.0350037
4.140833378,296.5835571
4.142499924,296.4074707
4.144166946,297.8676453
4.145833492,296.4970093
4.147500038,295.713501
4.149166584,297.6462097
4.150833607,297.8822327
4.152500153,298.2057495
4.154166698,298.0925293
4.155833244,296.4446716
4.15749979,297.1799316
4.159166813,297.3359985
4.160833359,298.3017578
4.162499905,298.0586243
4.164166927,297.6838379
4.165833473,300.9039001
4.167500019,297.4910889
4.169167042,298.641449
4.170833111,296.5931396
4.172500134,297.6890869
4.174166679,296.2112427
4.175833225,297.6584778
4.177500248,298.6402283
4.179166794,297.4702759
4.18083334,298.3426208
4.182499886,297.7854919
4.184166908,296.3403015
4.185833454,296.8839417
4.1875,297.1114502
4.189166546,296.6192932
4.190833092,298.3343506
4.192500114,295.7043152
4.19416666,295.483551
4.195833206,295.3476563
4.197500229,296.9017944
4.199166775,297.5010986
4.200833321,296.8139343
4.202500343,298.1526489
4.204166889,297.5210876
4.205833435,297.0287781
4.207499981,297.0960999
4.209166527,298.5758057
4.210833549,299.2359314
4.212500095,297.6400757
4.214166641,296.7480164
4.215833187,295.8449402
4.21750021,297.0941162
4.219166756,297.6279297
4.220833302,295.579834
4.222500324,297.5479736
4.224166393,297.2117004
4.225833416,298.2307434
4.227499962,296.8204346
4.229166508,297.3262939
4.23083353,298.2857361
4.232500076,297.3634644
4.234166622,298.0908203
4.235833645,298.1926575
4.237500191,297.7296143
4.239166737,297.2677307
4.240833282,296.3970642
4.242499828,296.3720093
4.244166851,297.296814
4.245833397,297.7442322
4.247499943,296.0834351
4.249166489,297.5922852
4.250833511,296.2487183
4.252500057,297.1172791
4.254166603,298.2616577
4.255833626,297.6261902
4.257500172,295.9595032
4.259166718,295.2203674
4.260833263,295.9230957
4.262499809,298.1436157
4.264166832,298.0908813
4.265833378,296.6118469
4.267500401,296.6815796
4.26916647,296.3721313
4.270833492,299.1903076
4.272500038,297.969574
4.274167061,298.4432373
4.275833607,298.0845032
4.277499676,297.4011841
4.279166698,297.2568054
4.280833244,296.257019
4.282500267,296.5168457
4.284166813,297.2053528
4.285833359,297.8361511
4.287499905,297.8096924
4.289166927,297.515686
4.290833473,298.1231079
4.292500496,297.9042053
4.294166565,296.1044922
4.295833111,298.1131897
4.297500134,295.7643738
4.299166679,296.4791565
4.300833702,297.9790955
4.302499771,298.6028137
4.304166794,297.9721985
4.30583334,296.9537659
4.307500362,295.6854858
4.309166908,294.790802
4.310833454,299.2129517
4.3125,297.232605
4.314166546,296.2559204
4.315833569,299.4785767
4.317500114,299.3966675
4.31916666,296.5213928
4.320833206,294.0011292
4.322500229,298.7440491
4.324166775,296.9089661
4.325833797,296.7557068
4.327499866,296.2539368
4.329166889,296.221405
4.330833435,297.5278931
4.332499981,297.5585022
4.334167004,298.8274536
4.335833073,296.4039917
4.337500095,296.8345337
4.339166641,298.2488098
4.340833664,296.9128418
4.34250021,297.2304077
4.344166756,295.9671936
4.345833302,297.0027161
4.347500324,295.6672058
4.34916687,296.5857239
4.350833416,297.2944336
4.352499962,295.8590088
4.354166508,297.2764587
4.35583353,296.0994568
4.357500076,297.6724854
4.359167099,295.2518005
4.360833168,295.3309937
4.362500191,298.2352295
4.364166737,296.5047302
4.365833759,297.4501953
4.367500305,296.5187988
4.369166374,297.7163391
4.370833397,297.3538513
4.372499943,297.1648254
4.374166965,297.240448
4.375833511,296.6963501
4.377500057,296.5198059
4.379166603,298.3033447
4.380833626,297.0375366
4.382500172,298.8569641
4.384167194,297.3700256
4.385833263,297.3798218
4.387499809,295.6358643
4.389166832,294.7465515
4.390833378,297.5126038
4.392500401,296.6752319
4.39416647,296.8596497
4.395833492,298.8726807
4.397500038,297.6896057
4.399167061,297.3945313
4.400833607,296.2786255
4.402499676,296.6184998
4.404166698,297.6805725
4.405833244,296.5281982
4.407500267,295.7033691
4.409166813,295.9879761
4.410833359,297.8121033
4.412499905,296.1236572
4.414166927,298.362793
4.415833473,294.2123108
4.417500496,297.2676697
4.419166565,297.0697632
4.420833111,294.7561951
4.422500134,298.2615356
4.424166679,295.5312195
4.425833702,296.77005
4.427499771,296.820343
4.429166794,296.0797119
4.43083334,296.01297
4.432500362,297.1656799
4.434166908,296.1723938
4.435833454,296.3011169
4.4375,293.7679749
4.439166546,296.1628113
4.440833569,295.9621277
4.442500114,295.6193848
4.44416666,295.384613
4.445833206,297.01474
4.447500229,298.9276123
4.449166775,296.8628235
4.450833797,297.9129333
4.452499866,296.8826294
4.454166889,297.2909851
4.455833435,298.3216553
4.457499981,297.09021
4.459167004,299.2862549
4.460833073,296.2912292
4.462500095,295.9538879
4.464166641,295.2964783
4.465833664,297.2489929
4.46750021,296.501709
4.469166756,297.4091492
4.470833302,296.2423706
4.472500324,296.7290649
4.47416687,297.2714844
4.475833416,295.9778137
4.477499962,295.9562988
4.479166508,296.1919861
4.48083353,297.403595
4.482500076,295.302002
4.484167099,295.6671143
4.485833168,297.0640869
4.487500191,298.8781433
4.489166737,296.597168
4.490833759,295.7502747
4.492500305,296.3213806
4.494166374,298.2563782
4.495833397,295.3253174
4.497499943,299.0958252
4.499166965,298.0784302
4.500833511,296.0783691
4.502500057,295.4219055
4.504166603,296.9044495
4.505833626,297.4287415
4.507500172,295.3140259
4.509167194,296.6110535
4.510833263,298.0331421
4.512499809,298.4329529
4.514166832,298.0483398
4.515833378,297.7123718
4.517500401,294.9848633
4.51916647,295.7172241
4.520833492,295.8988647
4.522500038,299.4838562
4.524167061,296.3505859
4.525833607,296.8230286
4.527499676,297.7564087
4.529166698,297.6075439
4.530833244,294.4176941
4.532500267,295.0422058
4.534166813,295.2027283
4.535833359,296.9345703
4.537499905,297.5819092
4.539166927,297.9526978
4.540833473,296.0926514
4.542500496,295.3996277
4.544166565,297.3564148
4.545833111,295.7227478
4.547500134,296.213562
4.549166679,295.6460876
4.550833702,297.3292847
4.552499771,295.6777039
4.554166794,297.1157837
4.55583334,297.7097778
4.557500362,297.4447327
4.559166908,296.059845
4.560833454,296.9894714
4.5625,297.0740967
4.564166546,296.0979614
4.565833569,299.3908081
4.567500114,296.2495117
4.56916666,299.5232239
4.570833206,296.9040527
4.572500229,296.8502808
4.574166775,296.4616394
4.575833797,297.2087097
4.577499866,296.7430115
4.579166889,297.4015198
4.580833435,296.8118896
4.582499981,296.4478455
4.584167004,298.3161316
4.585833073,297.428009
4.587500095,296.1356201
4.589166641,295.1887817
4.590833664,297.326416
4.59250021,295.9144897
4.594166756,296.8947449
4.595833302,296.017334
4.597500324,295.4677124
4.59916687,294.5350952
4.600833416,296.9399719
4.602499962,299.5441895
4.604166508,298.7732849
4.60583353,295.5357666
4.607500076,295.3063354
4.609167099,297.5895386
4.610833168,296.6912537
4.612500191,295.0925598
4.614166737,297.6173706
4.615833759,298.1512146
4.617500305,297.7004395
4.619166374,297.6719055
4.620833397,297.5375061
4.622499943,297.4946899
4.624166965,297.5249634
4.625833511,297.0230408
4.627500057,298.0916443
4.629166603,296.4341125
4.630833626,295.7101746
4.632500172,296.6479797
4.634167194,296.951416
4.635833263,296.7690125
4.637499809,296.3162842
4.639166832,296.1312561
4.640833378,294.2434387
4.642500401,296.9506531
4.64416647,296.8265381
4.645833492,294.8556519
4.647500038,297.6584778
4.649167061,296.6828308
4.650833607,296.3997498
4.652499676,297.2032166
4.654166698,296.8234863
4.655833244,294.87323
4.657500267,295.7801514
4.659166813,296.2486267
4.660833359,294.7180176
4.662499905,294.3454285
4.664166927,297.0617981
4.665833473,297.5653076
4.667500496,296.3630066
4.669166565,296.8714294
4.670833111,296.3541565
4.672500134,296.7650146
4.674166679,295.7634583
4.675833702,297.5582886
4.677499771,296.0858459
4.679166794,298.1576233
4.68083334,296.2362061
4.682500362,298.0085754
4.684166908,296.8587036
4.685833454,297.9622192
4.6875,296.7793579
4.689166546,298.7729492
4.690833569,297.8357239
4.692500114,297.4740601
4.69416666,297.2887268
4.695833206,296.8522949
4.697500229,295.7220764
4.699166775,298.8520813
4.700833797,296.3527527
4.702499866,297.2892456
4.704166889,295.3973999
4.705833435,296.4324646
4.707499981,296.67099
4.709167004,295.6870117
4.710833073,297.1395569
4.712500095,296.9106445
4.714166641,296.5404358
4.715833664,295.3603821
4.71750021,295.7459412
4.719166756,297.1488953
4.720833302,294.0577698
4.722500324,296.3550415
4.72416687,296.0670776
4.725833416,297.6802368
4.727499962,297.4804688
4.729166508,298.999054
4.73083353,296.3599243
4.732500076,296.0895996
4.734167099,296.1263733
4.735833168,298.5373535
4.737500191,297.8155212
4.739166737,295.9223938
4.740833759,297.4830627
4.742500305,297.6604004
4.744166374,297.3329163
4.745833397,295.0299988
4.747499943,295.8929138
4.749166965,295.4584045
4.750833511,294.5821228
4.752500057,296.7225342
4.754166603,295.4914551
4.755833626,295.5519409
4.757500172,296.0889893
4.759167194,296.6363525
4.760833263,295.7401123
4.762499809,295.4083557
4.764166832,296.3667297
4.765833378,295.6465454
4.767500401,295.7179565
4.76916647,295.2521057
4.770833492,297.4760437
4.772500038,296.5623474
4.774167061,297.2681274
4.775833607,295.3887939
4.777499676,297.2794495
4.779166698,297.6654358
4.780833244,298.0161743
4.782500267,296.6863708
4.784166813,297.3693237
4.785833359,296.1014404
4.787499905,295.5553894
4.789166927,297.0772705
4.790833473,296.590271
4.792500496,296.2215271
4.794166565,297.0292969
4.795833111,296.6478577
4.797500134,297.313385
4.799166679,294.102356
4.800833702,298.131958
4.802499771,297.2853699
4.804166794,296.7031555
4.80583334,297.5788269
4.807500362,297.1187134
4.809166908,296.6636963
4.810833454,296.5496216
4.8125,296.6841431
4.814166546,296.6987915
4.815833569,294.4841309
4.817500114,297.1223755
4.81916666,296.2269897
4.820833206,296.1520386
4.822500229,295.3118591
4.824166775,295.8812866
4.825833797,297.0517578
4.827499866,297.0685425
4.829166889,295.9354553
4.830833435,298.2296448
4.832499981,297.7038269
4.834167004,296.4102783
4.835833073,295.9402466
4.837500095,297.2632751
4.839166641,297.1973267
4.840833664,296.7553101
4.84250021,297.947052
4.844166756,298.1938477
4.845833302,297.0535278
4.847500324,296.1377869
4.84916687,296.7129517
4.850833416,296.4570923
4.852499962,295.8812866
4.854166508,295.6833191
4.85583353,296.4828186
4.857500076,296.8509521
4.859167099,297.1767273
4.860833168,295.3137817
4.862500191,296.2062073
4.864166737,294.9197998
4.865833759,296.4140625
4.867500305,296.1164856
4.869166374,296.3189697
4.870833397,297.2269287
4.872499943,297.1976929
4.874166965,296.4095764
4.875833511,296.9492798
4.877500057,296.0629578
4.879166603,297.0383911
4.880833626,297.1012878
4.882500172,297.2075806
4.884167194,297.2370911
4.885833263,296.8352356
4.887499809,295.3807983
4.889166832,295.5901489
4.890833378,296.5236511
4.892500401,297.7839355
4.89416647,296.4309082
4.895833492,296.4715576
4.897500038,296.2204895
4.899167061,296.3547974
4.900833607,295.9124451
4.902499676,295.8392334
4.904166698,295.5578308
4.905833244,298.3316956
4.907500267,295.6534119
4.909166813,296.7365723
4.910833359,296.8544922
4.912499905,298.5882568
4.914166927,295.8169556
4.915833473,297.2293701
4.917500496,297.0733643
4.919166565,295.1012268
4.920833111,297.5629272
4.922500134,297.5742188
4.924166679,296.4658203
4.925833702,295.7172241
4.927499771,296.6813965
4.929166794,297.2487488
4.93083334,296.8175049
4.932500362,295.932373
4.934166908,295.8783569
4.935833454,294.9885559
4.9375,297.7648315
4.939166546,295.8708191
4.940833569,297.5332336
4.942500114,294.8666382
4.94416666,296.2833862
4.945833206,296.326416
4.947500229,296.3502502
4.949166775,295.8974304
4.950833797,297.2879333
4.952499866,295.7765808
4.954166889,297.4336548
4.955833435,296.3621521
4.957499981,294.8560486
4.959167004,295.0707397
4.960833073,297.8089294
4.962500095,297.6358032
4.964166641,295.1514893
4.965833664,296.8917542
4.96750021,295.5119324
4.969166756,296.9316711
4.970833302,295.9609375
4.972500324,298.1656494
4.97416687,296.4994812
4.975833416,299.1525574
4.977499962,296.5418091
4.979166508,298.3112793
4.98083353,297.0120544
4.982500076,295.8468018
4.984167099,295.5306396
4.985833168,296.7383728
4.987500191,296.0923157
4.989166737,295.9054871
4.990833759,295.5646057
4.992500305,294.9866333
4.994166374,295.8171082
4.995833397,297.5973511
4.997499943,294.4350281
4.999166965,297.7301941
5.000833511,297.7676697
5.002500057,296.9810181
5.004166603,296.5262756
5.005833626,297.2532349
5.007500172,296.318512
5.009167194,296.7503967
5.010833263,296.5952454
5.012499809,296.5058899
5.014166832,295.9661865
5.015833378,294.4004517
5.017500401,295.6105652
5.01916647,296.7507629
5.020833492,296.0559692
5.022500038,297.5817261