5a,
Time (min),Intensity (a.u.)
0.000833333,355.2561646
0.0025,354.6733093
0.004166667,353.3770752
0.005833333,353.396759
0.0075,352.8155518
0.009166667,353.3388062
0.010833334,354.594635
0.0125,355.1445923
0.014166667,355.574646
0.015833333,353.7988586
0.017500002,353.7820435
0.019166667,352.8914795
0.020833334,354.1804504
0.022500001,355.1631165
0.024166668,353.4071045
0.025833335,355.3897705
0.0275,354.3421326
0.029166667,354.8210754
0.030833334,354.0523376
0.032500003,354.4454041
0.034166668,353.3339233
0.035833336,352.5069275
0.037500001,355.285553
0.03916667,353.7256775
0.040833335,353.4094543
0.0425,354.0331421
0.044166669,353.3077393
0.045833334,352.0011292
0.047500003,355.017395
0.049166668,354.7494507
0.050833333,353.2134094
0.052500002,353.1802673
0.054166667,354.5515442
0.055833336,355.2160645
0.057500001,354.0098877
0.059166666,351.7011414
0.060833335,353.4064636
0.0625,353.6399841
0.064166673,353.4360046
0.065833338,354.4552002
0.067500003,352.843689
0.069166668,354.3555908
0.070833333,354.3630676
0.072499998,354.7069397
0.07416667,353.6515198
0.075833336,353.8770142
0.077500001,352.7104797
0.079166666,352.9075012
0.080833331,352.0221558
0.082500003,350.5409546
0.084166668,351.5997009
0.085833333,354.2548828
0.087499999,354.0280457
0.089166664,353.8087158
0.090833336,352.5055542
0.092500001,354.0098267
0.094166666,354.4375305
0.095833331,352.430542
0.097499996,354.5997009
0.099166669,355.5269165
0.100833334,353.132019
0.102499999,353.1289978
0.104166664,354.1308899
0.105833329,352.5282593
0.107500002,353.655304
0.109166667,353.1838989
0.110833332,351.5952759
0.112499997,354.1531372
0.114166662,353.3067017
0.115833335,354.318573
0.1175,354.2076416
0.119166665,353.0896912
0.12083333,351.9076843
0.122499995,352.954071
0.124166675,353.9197693
0.125833333,354.1001282
0.127499998,352.9439392
0.129166663,353.8113403
0.130833328,352.3887939
0.132500008,353.3854065
0.134166673,352.8500366
0.135833338,354.0030518
0.137500003,353.2381287
0.139166668,351.7233582
0.140833333,352.1296692
0.142499998,351.603363
0.144166678,351.7736816
0.145833328,351.9523621
0.147500008,351.9395142
0.149166659,352.2666931
0.150833339,353.8404236
0.152500004,352.0093994
0.154166669,353.9234924
0.155833334,351.5242004
0.157499999,353.1949768
0.159166664,351.8664856
0.160833344,355.1046753
0.162499994,352.3237305
0.164166674,353.2299805
0.165833324,353.364563
0.167500004,353.2765198
0.169166669,352.1842651
0.170833334,352.8711853
0.172499999,353.8865356
0.174166665,353.5263367
0.17583333,352.992218
0.17750001,352.0189819
0.17916666,353.6669617
0.18083334,354.0535278
0.18249999,352.4801941
0.18416667,350.9220276
0.18583335,353.3066711
0.1875,353.3025513
0.18916668,353.6019592
0.19083333,352.6567078
0.19250001,351.768219
0.194166675,351.7456665
0.19583334,352.2042847
0.197500005,354.6062622
0.19916667,351.5088806
0.200833336,354.0240784
0.202500016,352.0755615
0.204166666,353.5753174
0.205833346,351.3927612
0.207499996,353.6562195
0.209166676,353.0127563
0.210833341,353.2003784
0.212500006,352.9606934
0.214166671,351.9839783
0.215833336,352.9356079
0.217500001,352.3540344
0.219166681,353.3222961
0.220833331,350.8756409
0.222500011,352.514679
0.224166662,352.9095154
0.225833342,351.3737488
0.227500007,353.0635071
0.229166672,352.9590759
0.230833337,352.9118958
0.232500002,351.2039185
0.234166667,352.0873108
0.235833347,351.9256592
0.237499997,353.4147644
0.239166677,351.260498
0.240833327,351.5744324
0.242500007,353.8738708
0.244166672,349.9605408
0.245833337,351.938324
0.247500002,351.478241
0.249166668,352.993866
0.250833333,351.8734741
0.252499998,353.226593
0.254166663,352.0715027
0.255833328,351.890625
0.257499993,351.8237915
0.259166658,350.0737305
0.260833353,353.2140808
0.262499988,352.5187683
0.264166683,351.9317627
0.265833318,351.0321655
0.267500013,351.711853
0.269166648,351.798645
0.270833343,351.8145142
0.272500008,353.8387146
0.274166673,351.7504883
0.275833339,353.4693604
0.277500004,351.6089478
0.279166669,353.6377563
0.280833334,352.1303101
0.282499999,351.8062439
0.284166694,351.7955017
0.285833329,351.2224426
0.287499994,352.1334839
0.289166659,350.9975891
0.290833354,350.8656921
0.292500019,350.5127258
0.294166654,353.934845
0.295833319,352.1647339
0.297500014,351.7609253
0.299166679,352.283783
0.300833345,351.3085022
0.30249998,352.3322754
0.304166675,352.3119507
0.30583334,352.8575745
0.307500005,352.1060181
0.3091667,351.7414246
0.310833335,352.6210938
0.3125,351.3158264
0.314166665,353.0253296
0.31583336,350.4579468
0.317500025,351.1644287
0.31916666,353.439209
0.320833325,351.7419739
0.32250002,352.149292
0.324166685,353.7910767
0.32583335,352.2116394
0.327499986,351.5630798
0.329166681,351.0374146
0.330833346,352.5675964
0.332500011,349.5885925
0.334166676,351.2579956
0.335833341,352.1917419
0.337500006,352.0613098
0.339166671,353.6190186
0.340833336,352.7984924
0.342500031,352.2601929
0.344166666,350.1008606
0.345833331,352.1889038
0.347499996,351.6509705
0.349166691,351.6002197
0.350833356,352.4188843
0.352499992,352.0050354
0.354166657,351.4815674
0.355833352,351.3279724
0.357500017,352.0705261
0.359166682,351.2914429
0.360833317,353.8126831
0.362500012,352.887207
0.364166677,352.1126709
0.365833342,352.1552734
0.367500007,350.7130127
0.369166672,353.2621155
0.370833337,352.635437
0.372500002,353.8774719
0.374166668,352.0073242
0.375833362,348.6495361
0.377499998,353.9272156
0.379166663,351.3713684
0.380833328,351.3316345
0.382500023,352.0153198
0.384166688,352.0486755
0.385833323,352.187439
0.387499988,352.20755
0.389166683,351.938385
0.390833348,352.8058472
0.392500013,350.9130859
0.394166648,351.1992493
0.395833343,352.148407
0.397500008,353.23526
0.399166673,349.8695374
0.400833339,353.7402344
0.402500004,351.8422852
0.404166669,354.4884644
0.405833334,350.5123596
0.407499999,350.1879578
0.409166694,354.012146
0.410833329,352.4442444
0.412499994,352.0164795
0.414166659,352.039032
0.415833354,351.2971191
0.417500019,349.2693481
0.419166654,352.0040588
0.420833319,352.1513367
0.422500014,351.7937927
0.424166679,350.7172546
0.425833345,351.8179016
0.42749998,350.0802612
0.429166675,352.274353
0.43083334,352.1416626
0.432500005,352.7866821
0.4341667,352.6428833
0.435833335,351.2124939
0.4375,351.4349976
0.439166665,352.3426514
0.44083336,352.7643127
0.442500025,352.9440002
0.44416666,352.6503906
0.445833325,351.1305847
0.44750002,349.9819641
0.449166685,351.8671265
0.45083335,350.6403809
0.452499986,352.1727905
0.454166681,351.7140503
0.455833346,352.266449
0.457500011,352.3274841
0.459166676,349.3348694
0.460833341,353.9146729
0.462500006,354.173645
0.464166671,352.1596069
0.465833336,351.3822021
0.467500031,350.4484253
0.469166666,351.4649048
0.470833331,351.2223511
0.472499996,351.4026184
0.474166691,350.0032654
0.475833356,350.5289612
0.477499992,350.3077087
0.479166657,351.835968
0.480833352,352.8429565
0.482500017,352.15625
0.484166682,352.6169434
0.485833317,351.2419128
0.487500012,352.5708008
0.489166677,350.5499878
0.490833342,350.1218262
0.492500007,351.8222656
0.494166672,351.2946167
0.495833337,350.9245605
0.497500002,350.9263611
0.499166668,350.9646912
0.500833333,351.288269
0.502499998,351.742157
0.504166663,353.0166626
0.505833328,351.9160156
0.507499993,352.383606
0.509166658,351.8316956
0.510833323,350.6795959
0.512499988,350.9354248
0.514166653,352.4768982
0.515833318,350.0324707
0.517500043,351.5338745
0.519166648,350.4996948
0.520833314,351.8287659
0.522499979,351.3737488
0.524166703,349.1000977
0.525833368,352.4289246
0.527499974,352.0637817
0.529166639,350.9043274
0.530833364,352.0204468
0.532500029,350.6796875
0.534166634,351.5415039
0.535833359,352.1022949
0.537500024,351.3879089
0.539166689,352.1197205
0.540833354,352.4835815
0.54249996,350.6821594
0.544166684,351.4688721
0.545833349,350.5696106
0.547500014,351.1971741
0.549166679,350.6657715
0.550833345,351.5307007
0.55250001,352.9338074
0.554166675,351.7290344
0.555833399,350.0079651
0.557500005,350.3381042
0.55916667,350.8175049
0.560833335,350.7417297
0.5625,351.4917603
0.564166725,350.1913147
0.56583333,350.3545532
0.567499995,349.1776428
0.56916672,353.0774536
0.570833325,350.1769409
0.57250005,350.8692932
0.574166656,350.2342529
0.575833321,351.8952637
0.577500045,349.3452759
0.579166651,349.8878479
0.580833376,349.7129822
0.582500041,351.9795227
0.584166646,348.7770386
0.585833371,352.2273865
0.587499976,352.4176331
0.589166701,349.466156
0.590833366,352.2012329
0.592499971,350.9620667
0.594166696,352.0324402
0.595833361,349.1936646
0.597500026,351.5290222
0.599166691,351.2419739
0.600833297,352.1013489
0.602500022,350.9829102
0.604166687,351.3286438
0.605833352,349.1453857
0.607500017,352.5686951
0.609166682,351.4667664
0.610833347,352.1063232
0.612500012,352.4275513
0.614166677,353.1014404
0.615833342,352.5361633
0.617500007,350.532074
0.619166672,350.7608337
0.620833337,350.5244446
0.622500062,352.1648865
0.624166668,351.0826416
0.625833333,349.513092
0.627499998,350.2290649
0.629166663,351.1791382
0.630833387,354.4045105
0.632499993,352.2016907
0.634166658,352.1252441
0.635833383,351.5059204
0.637499988,351.5787659
0.639166713,351.9396973
0.640833318,350.7944946
0.642499983,351.4508972
0.644166708,350.82724
0.645833314,351.4597168
0.647500038,351.6330872
0.649166703,349.7807312
0.650833309,352.6868896
0.652500033,351.1753235
0.654166639,350.3725891
0.655833364,351.3556824
0.657500029,350.1450806
0.659166634,349.7305603
0.660833359,351.0984802
0.662500024,349.6003723
0.664166689,349.8005371
0.665833354,351.579071
0.66749996,350.4158936
0.669166684,352.0839233
0.670833349,348.2892761
0.672500014,351.8173523
0.674166679,350.9862671
0.675833345,351.3330688
0.67750001,351.09375
0.679166675,351.7148743
0.680833399,350.8946228
0.682500005,348.8594055
0.68416667,350.4703064
0.685833335,351.6352234
0.6875,350.7966614
0.689166725,351.7869263
0.69083333,351.3117981
0.692499995,351.1460571
0.69416672,351.1277466
0.695833325,350.3912354
0.69750005,351.9021301
0.699166656,351.572937
0.700833321,351.9075928
0.702500045,350.7409058
0.704166651,351.5004578
0.705833376,349.7032776
0.707500041,349.4471436
0.709166646,350.1902161
0.710833371,350.2203979
0.712499976,350.7671204
0.714166701,351.2800598
0.715833366,353.031189
0.717499971,350.1853943
0.719166696,349.8760681
0.720833361,349.4641113
0.722500026,351.5854492
0.724166691,349.8595886
0.725833297,352.9283447
0.727500022,349.3034363
0.729166687,350.2027893
0.730833352,351.3167419
0.732500017,351.6721497
0.734166682,351.256134
0.735833347,350.6360779
0.737500012,350.6802979
0.739166677,351.1987305
0.740833342,351.3991699
0.742500007,349.4155884
0.744166672,351.9753113
0.745833337,350.2035217
0.747500062,350.6605835
0.749166668,349.0832825
0.750833333,350.7483521
0.752499998,351.2539063
0.754166663,351.147644
0.755833387,348.9852295
0.757499993,349.3627014
0.759166658,349.3117371
0.760833383,351.1738892
0.762499988,350.59552
0.764166713,349.866394
0.765833318,351.8443298
0.767499983,351.0296021
0.769166708,349.9431152
0.770833314,353.2901001
0.772500038,349.7752991
0.774166703,351.1842957
0.775833309,350.4605408
0.777500033,350.6616211
0.779166639,350.8976746
0.780833364,352.2615967
0.782500029,350.5966492
0.784166634,350.9464111
0.785833359,350.7765808
0.787500024,350.8878784
0.789166689,351.5392761
0.790833354,349.571991
0.79249996,350.1771545
0.794166684,351.0756836
0.795833349,350.6555481
0.797500014,352.1176453
0.799166679,351.1045532
0.800833345,352.1792603
0.80250001,350.3277588
0.804166675,350.4609375
0.805833399,353.2933044
0.807500005,349.9729614
0.80916667,351.6196289
0.810833335,351.164032
0.8125,350.2900085
0.814166725,349.4765625
0.81583333,350.3264771
0.817499995,348.8760986
0.81916672,352.3832397
0.820833325,351.3928528
0.82250005,351.281311
0.824166656,350.6122131
0.825833321,349.7984619
0.827500045,351.0657654
0.829166651,349.6799316
0.830833376,350.7281799
0.832500041,351.1082764
0.834166646,350.1841431
0.835833371,352.1689758
0.837499976,350.7409668
0.839166701,349.3310547
0.840833366,350.1987915
0.842499971,351.1646118
0.844166696,349.5617371
0.845833361,350.8485107
0.847500026,349.358551
0.849166691,349.5040894
0.850833297,351.2600708
0.852500022,349.256073
0.854166687,350.2981873
0.855833352,351.5280151
0.857500017,352.0416565
0.859166682,350.8175964
0.860833347,350.1873169
0.862500012,352.9252014
0.864166677,350.9185181
0.865833342,351.1427307
0.867500007,350.0504456
0.869166672,349.604248
0.870833337,351.614563
0.872500062,351.8822937
0.874166668,353.1980286
0.875833333,350.8703613
0.877499998,352.2563782
0.879166663,351.7904053
0.880833387,350.4821777
0.882499993,349.1451721
0.884166658,349.375885
0.885833383,351.1802673
0.887499988,349.9054565
0.889166713,351.2849121
0.890833318,352.7834778
0.892499983,350.631073
0.894166708,350.5858459
0.895833314,350.5560608
0.897500038,351.4008179
0.899166703,352.0743408
0.900833309,350.3634644
0.902500033,352.1072388
0.904166639,351.8339539
0.905833364,351.2939148
0.907500029,351.5296631
0.909166634,348.9179688
0.910833359,351.5358276
0.912500024,351.6471558
0.914166689,349.8572388
0.915833354,351.5776978
0.91749996,350.0827637
0.919166684,350.8780212
0.920833349,351.8041992
0.922500014,351.79599
0.924166679,350.8392334
0.925833345,350.0729675
0.92750001,350.6114502
0.929166675,350.0499268
0.930833399,348.530426
0.932500005,349.3607788
0.93416667,348.5179138
0.935833335,350.2903442
0.9375,349.4838257
0.939166725,350.5341492
0.94083333,349.4096069
0.942499995,349.6469421
0.94416672,351.7192383
0.945833325,349.9151611
0.94750005,349.9568787
0.949166656,350.1836548
0.950833321,349.8995056
0.952500045,351.6921387
0.954166651,351.4207153
0.955833376,350.2898865
0.957500041,351.9618225
0.959166646,351.3878784
0.960833371,353.4606323
0.962499976,352.2511292
0.964166701,349.9593201
0.965833366,350.6201477
0.967499971,350.1207581
0.969166696,353.1496582
0.970833361,351.418396
0.972500026,351.8727112
0.974166691,349.2730408
0.975833297,349.0186768
0.977500022,349.5350647
0.979166687,351.8840027
0.980833352,350.3320618
0.982500017,351.5142822
0.984166682,352.1274414
0.985833347,350.1146545
0.987500012,348.6542969
0.989166677,351.6442261
0.990833342,349.7748108
0.992500007,350.8019409
0.994166672,350.5969849
0.995833337,349.957428
0.997500062,350.5233765
0.999166668,351.2066956
1.000833273,351.9649658
1.002500057,350.3487244
1.004166722,351.4104309
1.005833387,351.5734863
1.007500052,351.1308594
1.009166598,350.1379395
1.010833383,351.5183716
1.012500048,349.1309814
1.014166713,349.8699646
1.015833378,348.8743591
1.017500043,351.258728
1.019166708,351.8637085
1.020833373,351.8535156
1.022500038,350.8365784
1.024166703,350.3287659
1.025833368,351.83255
1.027500033,349.4924927
1.029166698,352.1291809
1.030833364,351.5079651
1.032500029,350.0493164
1.034166694,351.7942505
1.035833359,349.5958557
1.037500024,350.2527161
1.039166689,351.3942871
1.040833354,349.8409119
1.042500019,351.6317749
1.044166684,350.3418579
1.045833349,349.7528687
1.047500014,351.6532898
1.049166679,352.0604553
1.050833344,349.1233215
1.05250001,351.5551758
1.054166675,350.2527161
1.05583334,348.3162231
1.057500005,350.4625549
1.05916667,351.9288025
1.060833335,350.1571045
1.0625,351.6019897
1.064166665,350.9525146
1.06583333,350.2218628
1.067499995,349.099884
1.06916666,352.8509827
1.070833325,349.3831787
1.07249999,352.2695923
1.074166775,350.7385864
1.07583344,350.7377014
1.077499986,349.6166992
1.079166651,349.6424255
1.080833316,349.2737122
1.0825001,348.8184509
1.084166765,350.6928711
1.085833311,348.8117065
1.087499976,349.5562134
1.089166641,350.7381287
1.090833426,349.7536926
1.092500091,351.0501099
1.094166636,350.2295532
1.095833302,352.1961365
1.097499967,350.7218018
1.099166751,349.9043579
1.100833416,351.4268494
1.102500081,349.8602295
1.104166627,349.2878113
1.105833292,350.6321411
1.107500076,350.8641968
1.109166741,350.7535095
1.110833406,349.4188538
1.112499952,351.140625
1.114166617,351.7035217
1.115833402,348.9230042
1.117500067,350.4952087
1.119166732,351.9867554
1.120833278,351.8029785
1.122499943,351.3752136
1.124166727,351.6560059
1.125833392,349.799469
1.127500057,348.9096069
1.129166722,351.8076782
1.130833268,350.7057495
1.132500052,350.1626892
1.134166718,349.9479065
1.135833383,349.6980286
1.137500048,352.0239258
1.139166594,349.565979
1.140833378,348.8024902
1.142500043,350.4550476
1.144166708,351.7539368
1.145833373,350.3763733
1.147499919,351.1783752
1.149166703,350.3673096
1.150833368,351.3897705
1.152500033,351.6712036
1.154166698,350.8464355
1.155833364,350.9492188
1.157500029,349.7811279
1.159166694,349.9337769
1.160833359,350.6998901
1.162500024,349.5208435
1.164166689,350.7358093
1.165833354,350.3771362
1.167500019,351.3802795
1.169166684,351.4309082
1.170833349,350.1565552
1.172500014,350.5326233
1.174166799,349.6612549
1.175833344,350.3403015
1.17750001,350.3332825
1.179166675,350.4936829
1.18083334,350.0245667
1.182500124,352.099762
1.18416667,350.0670471
1.185833335,349.6087341
1.1875,350.5858154
1.189166665,350.2307434
1.190833449,349.1188049
1.192499995,350.4453735
1.19416666,350.747467
1.195833325,352.7943115
1.19749999,349.6146545
1.199166775,350.9970398
1.20083344,350.5221558
1.202499986,352.3013306
1.204166651,350.9889221
1.205833316,351.4325562
1.2075001,348.5022888
1.209166765,351.6974487
1.210833311,350.3372192
1.212499976,351.1454468
1.214166641,350.5231323
1.215833426,351.5639954
1.217500091,349.8838196
1.219166636,351.8139648
1.220833302,350.0410461
1.222499967,349.4405823
1.224166751,352.5537109
1.225833416,348.9644775
1.227500081,351.5474548
1.229166627,349.5480042
1.230833292,348.5447388
1.232500076,351.4215088
1.234166741,351.2347107
1.235833406,351.1387634
1.237499952,350.7163391
1.239166617,349.5216675
1.240833402,352.4761353
1.242500067,350.6352234
1.244166732,350.4827271
1.245833278,349.7565002
1.247499943,351.1283264
1.249166727,350.4069214
1.250833392,351.2669678
1.252500057,350.8071289
1.254166722,351.6652832
1.255833268,350.9104004
1.257500052,349.3773193
1.259166718,350.3214111
1.260833383,350.7547302
1.262500048,351.677124
1.264166594,350.6872253
1.265833378,351.9172058
1.267500043,349.2281799
1.269166708,351.1067505
1.270833373,351.3326721
1.272499919,351.8147583
1.274166703,350.3610535
1.275833368,349.234375
1.277500033,349.6079407
1.279166698,349.9131165
1.280833364,350.8349609
1.282500029,351.0725098
1.284166694,351.0499268
1.285833359,350.2334595
1.287500024,349.8287048
1.289166689,350.228241
1.290833354,350.7864685
1.292500019,349.4052734
1.294166684,351.1195679
1.295833349,350.9762878
1.297500014,351.0294189
1.299166799,351.1209717
1.300833344,349.9218445
1.30250001,350.0803528
1.304166675,350.0888062
1.30583334,349.0888367
1.307500124,351.4647827
1.30916667,347.9281616
1.310833335,349.4303894
1.3125,350.4631042
1.314166665,352.5232239
1.315833449,352.328949
1.317499995,352.050415
1.31916666,350.8559265
1.320833325,350.9547729
1.32249999,349.3421021
1.324166775,350.0445557
1.32583344,349.6954651
1.327499986,351.3564148
1.329166651,350.9179077
1.330833316,350.6022034
1.3325001,350.4374695
1.334166765,349.4068604
1.335833311,349.4229736
1.337499976,350.8106079
1.339166641,350.8070679
1.340833426,350.0092773
1.342500091,348.6230469
1.344166636,348.0518494
1.345833302,347.9199219
1.347499967,350.7189331
1.349166751,352.043396
1.350833416,349.9723816
1.352500081,349.5929871
1.354166627,349.5975647
1.355833292,350.3100281
1.357500076,352.1936035
1.359166741,350.0223083
1.360833406,349.1086121
1.362499952,350.0779419
1.364166617,349.5793152
1.365833402,350.5380554
1.367500067,350.5880737
1.369166732,350.1221924
1.370833278,350.7003784
1.372499943,349.8467102
1.374166727,350.2021179
1.375833392,351.7463074
1.377500057,351.8230896
1.379166722,349.2449341
1.380833268,350.4637146
1.382500052,350.3751221
1.384166718,349.651123
1.385833383,350.5324402
1.387500048,349.8916931
1.389166594,349.7423401
1.390833378,350.0377502
1.392500043,349.5847168
1.394166708,350.4460449
1.395833373,351.355011
1.397499919,350.3617859
1.399166703,350.5050964
1.400833368,351.8910828
1.402500033,352.7411194
1.404166698,349.7419739
1.405833364,350.1389771
1.407500029,349.7994995
1.409166694,351.140686
1.410833359,350.6907043
1.412500024,350.6397095
1.414166689,351.2149963
1.415833354,351.6521912
1.417500019,350.2752686
1.419166684,350.2404785
1.420833349,351.8330994
1.422500014,352.1878357
1.424166799,351.7993164
1.425833344,351.0646057
1.42750001,351.5197449
1.429166675,350.3973694
1.43083334,348.4184875
1.432500124,350.4794617
1.43416667,351.2167664
1.435833335,351.3148499
1.4375,350.8894348
1.439166665,350.7037964
1.440833449,350.1700134
1.442499995,350.6802368
1.44416666,351.6382446
1.445833325,350.8055115
1.44749999,349.2893982
1.449166775,349.493866
1.45083344,349.6578064
1.452499986,350.9266357
1.454166651,350.5479736
1.455833316,350.0613098
1.4575001,352.1762695
1.459166765,349.2577515
1.460833311,353.0364685
1.462499976,349.484375
1.464166641,348.5928955
1.465833426,351.9499817
1.467500091,348.9004822
1.469166636,349.71698
1.470833302,350.374115
1.472499967,350.1737366
1.474166751,349.567688
1.475833416,350.2901306
1.477500081,350.1480408
1.479166627,350.5784607
1.480833292,348.1558838
1.482500076,350.8641357
1.484166741,350.8889465
1.485833406,349.5662231
1.487499952,349.2210083
1.489166617,350.8501892
1.490833402,351.5739441
1.492500067,349.5980835
1.494166732,347.4935303
1.495833278,351.3638306
1.497499943,349.9152832
1.499166727,350.7436829
1.500833392,351.6886597
1.502500057,351.1600342
1.504166722,350.4969788
1.505833268,349.0963135
1.507500052,350.7843018
1.509166718,349.7449036
1.510833383,349.9163818
1.512500048,349.4065552
1.514166594,350.5930786
1.515833378,349.3572388
1.517500043,351.7532654
1.519166708,350.2148132
1.520833373,351.5810852
1.522499919,349.7124939
1.524166703,351.1828918
1.525833368,352.8971252
1.527500033,350.4437256
1.529166698,348.2904968
1.530833364,349.6521301
1.532500029,348.6276245
1.534166694,351.6889954
1.535833359,350.6965942
1.537500024,351.316925
1.539166689,349.9112549
1.540833354,349.5584717
1.542500019,349.8575745
1.544166684,350.4956055
1.545833349,352.4006653
1.547500014,350.4506836
1.549166799,349.3085022
1.550833344,350.1869812
1.55250001,350.276886
1.554166675,351.7003174
1.55583334,350.6047974
1.557500124,350.9044189
1.55916667,349.7417603
1.560833335,351.3258667
1.5625,350.0740662
1.564166665,349.4902954
1.565833449,350.7817383
1.567499995,348.8302307
1.56916666,351.7649536
1.570833325,349.5689697
1.57249999,350.5395813
1.574166775,350.6056519
1.57583344,351.6565247
1.577499986,350.3562012
1.579166651,349.5767517
1.580833316,351.0269165
1.5825001,350.6341553
1.584166765,351.6416321
1.585833311,350.5125427
1.587499976,350.8677979
1.589166641,350.6204834
1.590833426,348.1006165
1.592500091,350.8890076
1.594166636,349.8084106
1.595833302,350.5840149
1.597499967,350.0282288
1.599166751,350.1443481
1.600833416,348.9231873
1.602500081,349.4553833
1.604166627,350.624054
1.605833292,349.9926758
1.607500076,349.1817932
1.609166741,352.142334
1.610833406,348.58255
1.612499952,349.5810852
1.614166617,348.9803772
1.615833402,348.1557617
1.617500067,352.3563232
1.619166732,351.5774841
1.620833278,351.5706482
1.622499943,350.914093
1.624166727,349.796936
1.625833392,350.0334473
1.627500057,349.7229614
1.629166722,352.0453491
1.630833268,350.2556152
1.632500052,351.1463318
1.634166718,351.4856873
1.635833383,349.9700623
1.637500048,349.3712158
1.639166594,349.257782
1.640833378,349.7311401
1.642500043,349.1068726
1.644166708,350.763092
1.645833373,350.3583679
1.647499919,348.9390869
1.649166703,352.0177612
1.650833368,351.1242065
1.652500033,350.0971985
1.654166698,349.8095398
1.655833364,350.7458496
1.657500029,349.9475708
1.659166694,351.7944641
1.660833359,351.1708984
1.662500024,349.9449768
1.664166689,351.9136658
1.665833354,351.6928406
1.667500019,350.2890625
1.669166684,352.3140869
1.670833349,350.7685547
1.672500014,348.2676697
1.674166799,352.4239807
1.675833344,351.3184814
1.67750001,350.0278015
1.679166675,349.5895691
1.68083334,351.3326721
1.682500124,350.8057251
1.68416667,349.7703552
1.685833335,350.9867249
1.6875,348.60849
1.689166665,349.2342834
1.690833449,348.1422424
1.692499995,349.6052246
1.69416666,348.4337158
1.695833325,349.9746094
1.69749999,349.5737305
1.699166775,350.9176025
1.70083344,350.3632202
1.702499986,350.4957581
1.704166651,350.552063
1.705833316,351.2874451
1.7075001,349.3719177
1.709166765,350.0260925
1.710833311,350.8382263
1.712499976,347.9100342
1.714166641,351.4216003
1.715833426,351.1701355
1.717500091,350.4681396
1.719166636,349.3661804
1.720833302,349.6656494
1.722499967,351.3397522
1.724166751,350.9539185
1.725833416,349.0820313
1.727500081,349.4780579
1.729166627,352.8143005
1.730833292,349.5020142
1.732500076,348.3833923
1.734166741,349.3994751
1.735833406,351.9650879
1.737499952,349.8905945
1.739166617,348.2730103
1.740833402,349.5835876
1.742500067,350.6143494
1.744166732,351.5779724
1.745833278,349.7605286
1.747499943,349.8314514
1.749166727,350.3870239
1.750833392,350.7404175
1.752500057,348.7899475
1.754166722,349.6476135
1.755833268,351.971283
1.757500052,351.3331604
1.759166718,351.960968
1.760833383,350.5721741
1.762500048,351.9050293
1.764166594,350.7427368
1.765833378,352.6873779
1.767500043,349.395752
1.769166708,351.3478088
1.770833373,349.5953064
1.772499919,349.1825256
1.774166703,350.5344849
1.775833368,349.0960999
1.777500033,350.6987915
1.779166698,349.5051575
1.780833364,351.1392822
1.782500029,349.57547
1.784166694,351.6447144
1.785833359,350.2687073
1.787500024,350.6133118
1.789166689,350.0777283
1.790833354,350.3488159
1.792500019,349.5942078
1.794166684,349.7887573
1.795833349,350.7886047
1.797500014,349.7619629
1.799166799,350.6808167
1.800833344,349.1759033
1.80250001,351.1710205
1.804166675,347.9819641
1.80583334,353.2535095
1.807500124,349.2023621
1.80916667,349.3985901
1.810833335,350.4968567
1.8125,350.2860107
1.814166665,351.1495667
1.815833449,349.8517761
1.817499995,350.2883301
1.81916666,352.2077942
1.820833325,350.9861145
1.82249999,351.7126465
1.824166775,347.6548157
1.82583344,349.3710022
1.827499986,350.6636963
1.829166651,349.473938
1.830833316,351.133606
1.8325001,349.8704834
1.834166765,350.053894
1.835833311,352.7810974
1.837499976,351.691864
1.839166641,351.2183533
1.840833426,350.2830811
1.842500091,350.3071594
1.844166636,350.8529968
1.845833302,350.8220825
1.847499967,349.3318176
1.849166751,350.841095
1.850833416,348.3948669
1.852500081,349.4875183
1.854166627,352.6600342
1.855833292,348.955719
1.857500076,348.7913513
1.859166741,350.5825806
1.860833406,349.6359863
1.862499952,350.7146912
1.864166617,350.0760193
1.865833402,350.1596985
1.867500067,349.3428955
1.869166732,349.7662659
1.870833278,349.9345703
1.872499943,350.3588562
1.874166727,349.2002869
1.875833392,350.1022339
1.877500057,351.7270203
1.879166722,350.933136
1.880833268,350.0817566
1.882500052,349.5390625
1.884166718,350.1357422
1.885833383,351.1907349
1.887500048,351.1697388
1.889166594,350.2106934
1.890833378,349.4889526
1.892500043,349.6650085
1.894166708,349.8490906
1.895833373,348.9530945
1.897499919,350.1829529
1.899166703,351.8737183
1.900833368,349.8512268
1.902500033,350.7359924
1.904166698,350.2601929
1.905833364,352.9156494
1.907500029,350.6803589
1.909166694,351.872467
1.910833359,348.735199
1.912500024,350.719574
1.914166689,350.1884155
1.915833354,350.634552
1.917500019,350.7376709
1.919166684,350.5001526
1.920833349,350.6929626
1.922500014,350.1634521
1.924166799,351.6919861
1.925833344,350.3969116
1.92750001,348.8141479
1.929166675,351.951416
1.93083334,351.3355713
1.932500124,349.2930908
1.93416667,351.4719849
1.935833335,351.8673401
1.9375,351.4823303
1.939166665,350.3287659
1.940833449,350.5986633
1.942499995,351.4614258
1.94416666,349.3824463
1.945833325,347.1775513
1.94749999,349.8379517
1.949166775,351.2698364
1.95083344,348.5952454
1.952499986,349.4069519
1.954166651,351.276947
1.955833316,351.9996643
1.9575001,351.6711121
1.959166765,350.1305847
1.960833311,349.2106934
1.962499976,350.1754761
1.964166641,348.7864075
1.965833426,349.052887
1.967500091,351.117157
1.969166636,351.0924988
1.970833302,351.9163513
1.972499967,349.3928223
1.974166751,350.6052856
1.975833416,348.9973145
1.977500081,350.0111084
1.979166627,352.3170776
1.980833292,349.334259
1.982500076,350.9941406
1.984166741,349.8612061
1.985833406,351.2278442
1.987499952,352.216217
1.989166617,351.0076904
1.990833402,351.3348694
1.992500067,349.1719055
1.994166732,351.6141663
1.995833278,351.0654602
1.997499943,354.5898743
1.999166727,349.1911011
2.000833273,349.3268738
2.002500057,351.5205688
2.004166603,348.151062
2.005833387,349.5666504
2.007500172,351.0875549
2.009166718,349.631958
2.010833263,351.4048462
2.012500048,350.0402222
2.014166594,350.2409058
2.015833378,349.8370056
2.017500162,350.9906006
2.019166708,351.1225891
2.020833254,350.4678955
2.022500038,350.0625916
2.024166822,351.8912659
2.025833368,344.4537964
2.027499914,351.0037231
2.029166698,349.7303772
2.030833244,348.4227905
2.032500029,349.9072876
2.034166813,351.9338989
2.035833359,349.0263672
2.037499905,349.1634827
2.039166689,349.4255676
2.040833473,349.5696411
2.042500019,351.04599
2.044166803,350.6017456
2.045833349,351.8079529
2.047499895,351.7757263
2.049166679,351.2886963
2.050833464,349.1071167
2.05250001,351.1249695
2.054166555,351.6347656
2.05583334,350.4899292
2.057500124,350.0524292
2.05916667,349.2489014
2.060833454,351.006012
2.0625,350.122406
2.064166546,347.9269104
2.06583333,350.5646667
2.067500114,349.8209229
2.06916666,349.6738281
2.070833445,352.3762512
2.07249999,350.3695068
2.074166775,351.1357727
2.075833321,351.5172729
2.077500105,352.2676697
2.079166651,352.0181885
2.080833197,350.4104919
2.082499981,350.2890625
2.084166765,350.2326965
2.085833311,351.1831055
2.087500095,351.008667
2.089166641,351.4376831
2.090833426,350.9682007
2.092499971,350.8897705
2.094166756,351.4420776
2.095833302,349.1318054
2.097500086,350.70401
2.099166632,350.8475342
2.100833416,349.6100159
2.102499962,350.543335
2.104166746,350.6306152
2.105833292,349.449707
2.107500076,349.5007019
2.109166622,350.6625366
2.110833406,350.6334839
2.112499952,349.1731873
2.114166737,349.3530884
2.115833521,349.6256104
2.117500067,350.1140137
2.119166613,348.4922791
2.120833397,350.0191345
2.122499943,351.1842041
2.124166727,351.0271912
2.125833273,351.8298035
2.127500057,347.9717407
2.129166603,349.8362427
2.130833387,351.3182068
2.132500172,349.9463196
2.134166718,351.4263916
2.135833502,351.4398804
2.137500048,350.2262573
2.139166832,349.1942139
2.140833378,352.5536194
2.142500162,353.1209412
2.144166708,350.1207886
2.145833254,350.1761475
2.147500038,349.3579102
2.149166584,350.8424072
2.150833368,349.0483093
2.152500153,350.3959351
2.154166698,350.2056885
2.155833483,351.1735229
2.157500029,350.1128235
2.159166813,349.8208618
2.160833597,349.0259705
2.162499905,351.5446777
2.164166689,349.4725342
2.165833235,349.0320129
2.167500019,350.5863037
2.169166803,351.1876526
2.170833349,350.9340515
2.172500134,348.7886353
2.174166679,349.6111755
2.175833464,350.8933716
2.177500248,350.4979553
2.179166555,351.6296997
2.18083334,349.5769348
2.182499886,350.0678711
2.18416667,350.7042542
2.185833454,348.5638733
2.1875,349.988739
2.189166784,351.124176
2.19083333,352.9101868
2.192500114,351.1961365
2.194166899,351.413147
2.195833445,351.2677917
2.19749999,350.1165466
2.199166536,350.8565979
2.200833321,349.6253357
2.202500105,349.9559021
2.204166651,349.7737122
2.205833435,350.8083801
2.207499981,350.5282593
2.209166765,351.2973328
2.210833549,350.9771729
2.212500095,350.2020264
2.21416688,349.8738708
2.215833187,352.6949768
2.217499971,348.3853455
2.219166756,349.667572
2.220833302,350.3640442
2.222500086,349.6993103
2.224166632,349.160675
2.225833416,349.7886963
2.2275002,349.0898438
2.229166746,351.6391296
2.23083353,350.2840881
2.232499838,350.9969788
2.234166622,350.2683105
2.235833406,351.0587463
2.237499952,349.5987549
2.239166737,349.5756531
2.240833282,349.550293
2.242500067,350.8825378
2.244166851,350.0604248
2.245833397,350.0422974
2.247500181,353.5804749
2.249166727,350.9170227
2.250833273,350.6376343
2.252500057,352.764801
2.254166603,349.744812
2.255833387,350.8104553
2.257499933,350.7833557
2.259166718,350.5056458
2.260833502,352.5569458
2.262500048,348.5076599
2.264166832,351.2075806
2.265833378,351.2948608
2.267500162,351.3732605
2.269166708,349.4579773
2.270833254,351.065918
2.272500038,352.3419189
2.274166584,349.9717102
2.275833368,349.7093201
2.277500153,349.0470581
2.279166698,350.5747986
2.280833483,349.8857117
2.282500029,349.5693665
2.284166813,350.7373047
2.285833597,350.9465942
2.287499905,349.1088562
2.289166689,349.8764343
2.290833235,348.9589539
2.292500019,349.5287781
2.294166803,351.607605
2.295833349,349.3516235
2.297500134,350.0623169
2.299166679,349.8988037
2.300833464,349.3801575
2.302500248,350.1047668
2.304166555,349.7850342
2.30583334,354.6116333
2.307499886,349.0874634
2.30916667,349.7923889
2.310833454,348.260376
2.3125,349.7851257
2.314166784,351.2606201
2.31583333,350.5809326
2.317500114,350.2301025
2.319166899,349.2845764
2.320833445,350.6336365
2.32249999,349.5209961
2.324166536,350.2720337
2.325833321,351.480835
2.327500105,350.8082886
2.329166651,350.4654236
2.330833435,350.1383362
2.332499981,350.2533875
2.334166765,349.8162231
2.335833549,350.5238953
2.337500095,351.2055664
2.33916688,349.333374
2.340833187,350.7366333
2.342499971,351.0623169
2.344166756,350.2363586
2.345833302,350.3910828
2.347500086,348.5753479
2.349166632,349.3760071
2.350833416,350.7255859
2.3525002,350.3900146
2.354166746,350.375061
2.35583353,349.6048889
2.357499838,351.5817871
2.359166622,351.0629578
2.360833406,350.4419861
2.362499952,349.5329285
2.364166737,351.4398804
2.365833282,348.5874939
2.367500067,350.3357849
2.369166851,350.6221619
2.370833397,350.6842957
2.372500181,350.9899292
2.374166727,349.1558533
2.375833273,349.0783386
2.377500057,351.8317566
2.379166603,349.467804
2.380833387,351.6046143
2.382499933,351.7609253
2.384166718,349.644989
2.385833502,351.9544067
2.387500048,351.2312622
2.389166832,351.0643921
2.390833378,350.6915588
2.392500162,352.293335
2.394166708,351.6400452
2.395833254,350.4707642
2.397500038,351.041748
2.399166584,350.2707214
2.400833368,349.9762268
2.402500153,350.7722473
2.404166698,349.2208252
2.405833483,349.4211121
2.407500029,350.4809265
2.409166813,349.4797058
2.410833597,349.7744141
2.412499905,351.6441345
2.414166689,349.6656189
2.415833235,350.0193176
2.417500019,349.2998047
2.419166803,350.8713989
2.420833349,350.2781067
2.422500134,350.0760193
2.424166679,349.9104919
2.425833464,350.6607666
2.427500248,350.2481995
2.429166555,350.0079346
2.43083334,352.3789978
2.432499886,351.2754211
2.43416667,352.0367126
2.435833454,349.9763184
2.4375,351.8736877
2.439166784,350.7457275
2.44083333,350.7037659
2.442500114,349.7483215
2.444166899,348.3135376
2.445833445,349.9269714
2.44749999,351.0848083
2.449166536,349.5956421
2.450833321,349.0736084
2.452500105,350.5923157
2.454166651,349.4470825
2.455833435,351.1507568
2.457499981,349.8870239
2.459166765,350.1941833
2.460833549,351.6812134
2.462500095,349.7268372
2.46416688,349.5245972
2.465833187,350.3776855
2.467499971,351.0303345
2.469166756,351.8651428
2.470833302,350.1541138
2.472500086,350.0483704
2.474166632,349.8701477
2.475833416,352.6735535
2.4775002,351.3818665
2.479166746,349.7495117
2.48083353,350.264679
2.482499838,350.716095
2.484166622,350.8605042
2.485833406,349.5637817
2.487499952,351.0636902
2.489166737,351.7342834
2.490833282,352.1213684
2.492500067,353.5108032
2.494166851,354.9691772
2.495833397,351.8312683
2.497500181,354.3634644
2.499166727,352.0750732
2.500833273,354.703186
2.502500057,365.3755188
2.504166603,361.3768005
2.505833387,355.7333374
2.507499933,355.6296692
2.509166718,345.0287781
2.510833502,349.9089355
2.512500048,345.9077148
2.514166832,347.2967224
2.515833378,346.2587891
2.517500162,346.2108765
2.519166708,346.1124573
2.520833254,345.4958191
2.522500038,349.2052307
2.524166584,332.3540344
2.525833368,273.2839966
2.527500153,312.3762207
2.529166698,332.3911743
2.530833483,337.6667175
2.532500029,337.7459412
2.534166813,343.1620789
2.535833597,342.8623047
2.537499905,341.0206909
2.539166689,312.190979
2.540833235,321.4996033
2.542500019,322.7131653
2.544166803,296.74646
2.545833349,317.6654358
2.547500134,305.9667969
2.549166679,328.206543
2.550833464,342.9233704
2.552500248,342.0779114
2.554166555,343.2626648
2.55583334,341.1661987
2.557499886,340.3764954
2.55916667,341.4881897
2.560833454,339.9091492
2.5625,340.6446228
2.564166784,339.2389832
2.56583333,339.9857788
2.567500114,339.9479065
2.569166899,339.2808228
2.570833445,339.3262329
2.57249999,337.603363
2.574166536,340.0592651
2.575833321,338.669281
2.577500105,337.8789673
2.579166651,335.5526123
2.580833435,337.6932373
2.582499981,336.327179
2.584166765,337.1760254
2.585833549,335.9859924
2.587500095,337.0705261
2.58916688,337.3534546
2.590833187,336.944397
2.592499971,335.8973999
2.594166756,336.9185791
2.595833302,334.6110229
2.597500086,336.348175
2.599166632,336.1040955
2.600833416,336.0006104
2.6025002,334.5793457
2.604166746,336.5475769
2.60583353,335.5791931
2.607499838,335.6427612
2.609166622,334.9828186
2.610833406,334.653595
2.612499952,335.4237976
2.614166737,334.7964478
2.615833282,332.9658203
2.617500067,333.0211487
2.619166851,334.5282593
2.620833397,333.005188
2.622500181,332.7811279
2.624166727,335.4307861
2.625833273,332.9047546
2.627500057,332.7271423
2.629166603,333.013855
2.630833387,333.9274902
2.632499933,333.6046753
2.634166718,332.8248596
2.635833502,333.1560974
2.637500048,333.8652649
2.639166832,333.6300354
2.640833378,330.3157654
2.642500162,332.1743164
2.644166708,331.3997498
2.645833254,331.9594116
2.647500038,329.8101196
2.649166584,330.4465332
2.650833368,332.0178833
2.652500153,333.0703125
2.654166698,331.1019592
2.655833483,332.1623535
2.657500029,330.9393921
2.659166813,331.1763916
2.660833597,330.3373413
2.662499905,328.8674011
2.664166689,331.3071899
2.665833235,328.5336914
2.667500019,330.4326782
2.669166803,331.0786743
2.670833349,329.7950439
2.672500134,328.1767883
2.674166679,328.0713806
2.675833464,332.6791077
2.677500248,330.5574341
2.679166555,331.8362427
2.68083334,330.6820068
2.682499886,331.6822205
2.68416667,331.0381775
2.685833454,329.0947571
2.6875,328.7869568
2.689166784,330.7718201
2.69083333,329.7754211
2.692500114,328.8374023
2.694166899,328.3704834
2.695833445,327.4938965
2.69749999,329.9742737
2.699166536,331.7818909
2.700833321,330.4353027
2.702500105,327.8738708
2.704166651,327.0249634
2.705833435,327.9162903
2.707499981,327.2328796
2.709166765,328.693573
2.710833549,329.091217
2.712500095,327.7997437
2.71416688,328.482666
2.715833187,327.3630066
2.717499971,329.3439636
2.719166756,329.7801819
2.720833302,327.9668579
2.722500086,327.7803345
2.724166632,327.84552
2.725833416,329.0970764
2.7275002,328.3339233
2.729166746,328.1193542
2.73083353,328.9857788
2.732499838,327.8085632
2.734166622,326.5431519
2.735833406,326.868988
2.737499952,328.3399658
2.739166737,325.2529602
2.740833282,328.2057495
2.742500067,326.1845703
2.744166851,325.5126953
2.745833397,326.7835693
2.747500181,327.7871704
2.749166727,324.9404297
2.750833273,328.537323
2.752500057,327.135376
2.754166603,327.9085388
2.755833387,325.100769
2.757499933,326.260376
2.759166718,324.6919556
2.760833502,327.5999451
2.762500048,327.6253357
2.764166832,325.8001404
2.765833378,325.5113831
2.767500162,327.2683105
2.769166708,324.730896
2.770833254,326.776001
2.772500038,327.1551514
2.774166584,327.6387024
2.775833368,326.34198
2.777500153,327.4252319
2.779166698,327.7957153
2.780833483,326.149353
2.782500029,324.7635193
2.784166813,326.5987549
2.785833597,325.9133911
2.787499905,326.3571472
2.789166689,326.8264771
2.790833235,325.9708252
2.792500019,327.4077148
2.794166803,326.9815369
2.795833349,327.0733337
2.797500134,324.9432373
2.799166679,324.9443359
2.800833464,324.3118896
2.802500248,327.9427795
2.804166555,323.4269714
2.80583334,324.8194275
2.807499886,327.0196838
2.80916667,323.7064514
2.810833454,325.5864868
2.8125,325.2929077
2.814166784,324.207428
2.81583333,325.2598267
2.817500114,325.6601257
2.819166899,324.8427734
2.820833445,324.8793945
2.82249999,324.2086792
2.824166536,326.2444153
2.825833321,324.3859863
2.827500105,323.7172852
2.829166651,325.586853
2.830833435,323.8652344
2.832499981,325.4359131
2.834166765,323.8128662
2.835833549,324.4910889
2.837500095,322.2662964
2.83916688,326.1062622
2.840833187,325.3583069
2.842499971,324.4696655
2.844166756,324.9719238
2.845833302,323.9443359
2.847500086,325.5607605
2.849166632,323.6844788
2.850833416,325.8415833
2.8525002,323.102356
2.854166746,325.0090942
2.85583353,324.2274475
2.857499838,323.2792053
2.859166622,324.515564
2.860833406,323.6990356
2.862499952,324.3642883
2.864166737,322.7053528
2.865833282,323.5020752
2.867500067,323.9528503
2.869166851,324.2900391
2.870833397,322.8179626
2.872500181,323.3278198
2.874166727,323.5206909
2.875833273,324.3382263
2.877500057,323.6930847
2.879166603,323.6960754
2.880833387,324.4764709
2.882499933,323.6265869
2.884166718,324.2266541
2.885833502,322.4916077
2.887500048,326.3556213
2.889166832,324.6477966
2.890833378,323.2337341
2.892500162,324.3957214
2.894166708,323.5898438
2.895833254,323.2212219
2.897500038,323.3698425
2.899166584,323.1740112
2.900833368,323.3199463
2.902500153,325.7867126
2.904166698,324.3641968
2.905833483,321.566864
2.907500029,325.2570496
2.909166813,325.1057434
2.910833597,323.0704651
2.912499905,324.0287781
2.914166689,322.1325684
2.915833235,323.7728882
2.917500019,321.6077271
2.919166803,325.2920227
2.920833349,325.7364807
2.922500134,324.4330444
2.924166679,322.4963989
2.925833464,325.0614929
2.927500248,324.3184204
2.929166555,324.9233704
2.93083334,323.5715027
2.932499886,321.8401794
2.93416667,323.1629944
2.935833454,323.8226013
2.9375,322.4556885
2.939166784,324.091095
2.94083333,325.046051
2.942500114,323.3861389
2.944166899,322.6173401
2.945833445,323.1987305
2.94749999,322.6695251
2.949166536,321.8948364
2.950833321,321.7728882
2.952500105,324.5293579
2.954166651,322.4692078
2.955833435,323.4443054
2.957499981,322.5265198
2.959166765,321.6847229
2.960833549,323.3638916
2.962500095,323.0437317
2.96416688,322.6244812
2.965833187,323.2162781
2.967499971,321.5746155
2.969166756,323.6246643
2.970833302,323.3687744
2.972500086,322.8141479
2.974166632,321.2996521
2.975833416,322.5331116
2.9775002,322.2930603
2.979166746,322.6788635
2.98083353,322.5943298
2.982499838,322.1496582
2.984166622,323.532959
2.985833406,323.1785278
2.987499952,321.3612366
2.989166737,320.9615173
2.990833282,320.9590454
2.992500067,321.9294128
2.994166851,323.8336182
2.995833397,323.9177246
2.997500181,320.9916992
2.999166727,322.8969116
3.000833273,321.7350769
3.002500057,323.6777039
3.004166603,322.4930725
3.005833387,322.5059509
3.007499933,322.4460144
3.009166718,322.4767151
3.010833502,322.0911255
3.012500048,321.4268799
3.014166832,321.0024109
3.015833378,322.1578674
3.017500162,320.187439
3.019166708,321.7933655
3.020833254,323.7793579
3.022500038,322.0050049
3.024166584,320.3184814
3.025833368,323.2266846
3.027500153,323.7042847
3.029166698,320.9473267
3.030833483,322.4521179
3.032500029,322.4575806
3.034166813,321.4923096
3.035833597,321.4603577
3.037499905,322.7391968
3.039166689,320.888855
3.040833235,321.022644
3.042500019,319.6175232
3.044166803,323.1708984
3.045833349,321.9935608
3.047500134,320.8406372
3.049166679,320.2004089
3.050833464,321.6404724
3.052500248,320.7448425
3.054166555,321.6336975
3.05583334,321.552002
3.057499886,321.7407227
3.05916667,321.8367004
3.060833454,320.6274109
3.0625,320.6655884
3.064166784,321.8887329
3.06583333,319.417511
3.067500114,320.7618408
3.069166899,320.4434509
3.070833445,322.358551
3.07249999,320.3974915
3.074166536,320.9031372
3.075833321,321.5561523
3.077500105,321.1137695
3.079166651,321.0671082
3.080833435,320.6583862
3.082499981,318.9363098
3.084166765,320.7755127
3.085833549,320.2415466
3.087500095,324.4762573
3.08916688,321.3370972
3.090833187,320.7607422
3.092499971,321.060791
3.094166756,321.194458
3.095833302,321.8248596
3.097500086,320.2572327
3.099166632,322.786499
3.100833416,320.2239685
3.1025002,320.66922
3.104166746,321.3381958
3.10583353,322.3713074
3.107499838,319.5612183
3.109166622,320.7284241
3.110833406,321.3524475
3.112499952,319.3524475
3.114166737,321.6673279
3.115833282,320.4548645
3.117500067,319.5302429
3.119166851,319.5019531
3.120833397,322.235199
3.122500181,321.0585938
3.124166727,320.5809326
3.125833273,319.1490479
3.127500057,321.6170349
3.129166603,320.20578
3.130833387,319.7245178
3.132499933,322.6048584
3.134166718,319.5449829
3.135833502,320.3363647
3.137500048,318.9049683
3.139166832,323.4884033
3.140833378,320.3051147
3.142500162,321.0334167
3.144166708,323.3539734
3.145833254,320.396637
3.147500038,320.0502625
3.149166584,320.2529602
3.150833368,322.2933044
3.152500153,320.9161987
3.154166698,320.2663879
3.155833483,320.6098328
3.157500029,321.4086304
3.159166813,322.3908691
3.160833597,321.504364
3.162499905,319.2013855
3.164166689,321.9324341
3.165833235,320.3310547
3.167500019,321.0365295
3.169166803,321.1894836
3.170833349,321.9136353
3.172500134,320.3676758
3.174166679,320.4053345
3.175833464,320.6682739
3.177500248,321.0090942
3.179166555,320.4957886
3.18083334,320.8103333
3.182499886,320.1150818
3.18416667,320.9484558
3.185833454,317.8376465
3.1875,320.2062683
3.189166784,320.4642639
3.19083333,321.3955688
3.192500114,320.7663269
3.194166899,318.9914856
3.195833445,320.0949707
3.19749999,319.4253235
3.199166536,319.1877136
3.200833321,319.9927063
3.202500105,321.0484009
3.204166651,320.6701355
3.205833435,318.7875671
3.207499981,321.6489258
3.209166765,319.2588501
3.210833549,320.508606
3.212500095,320.2069092
3.21416688,319.3859558
3.215833187,320.6472168
3.217499971,319.6481018
3.219166756,319.9852905
3.220833302,319.2123108
3.222500086,318.7659302
3.224166632,319.2189026
3.225833416,321.1520691
3.2275002,318.3422852
3.229166746,320.4510803
3.23083353,318.8869629
3.232499838,319.9129028
3.234166622,320.5133667
3.235833406,319.3079224
3.237499952,319.6299744
3.239166737,320.0462341
3.240833282,318.7736816
3.242500067,319.2012024
3.244166851,319.8373413
3.245833397,318.9614563
3.247500181,319.3333435
3.249166727,320.9992371
3.250833273,322.2279663
3.252500057,319.5221558
3.254166603,319.7541504
3.255833387,318.9616699
3.257499933,320.0212097
3.259166718,320.8885803
3.260833502,319.7581787
3.262500048,320.8616638
3.264166832,319.6921692
3.265833378,317.7079468
3.267500162,321.4321899
3.269166708,319.5537415
3.270833254,319.7622375
3.272500038,320.7554932
3.274166584,320.137085
3.275833368,319.7933044
3.277500153,319.6668396
3.279166698,318.4430847
3.280833483,321.8194885
3.282500029,317.3911133
3.284166813,319.4562073
3.285833597,319.3926697
3.287499905,319.6278687
3.289166689,318.9541016
3.290833235,319.988739
3.292500019,318.9158325
3.294166803,320.1513062
3.295833349,319.2225647
3.297500134,320.355896
3.299166679,319.2822876
3.300833464,318.8606262
3.302500248,318.23703
3.304166555,320.5245056
3.30583334,318.8600159
3.307499886,319.7769165
3.30916667,319.1232605
3.310833454,319.1155396
3.3125,319.8742981
3.314166784,318.0493164
3.31583333,321.3988037
3.317500114,319.6851807
3.319166899,320.9342651
3.320833445,319.9122009
3.32249999,320.0215149
3.324166536,318.4094238
3.325833321,317.6217651
3.327500105,318.8729858
3.329166651,318.8208313
3.330833435,319.1261292
3.332499981,318.9741821
3.334166765,320.1477966
3.335833549,319.4515991
3.337500095,319.9582825
3.33916688,320.3329163
3.340833187,319.8661804
3.342499971,320.3962097
3.344166756,319.4822998
3.345833302,319.1903992
3.347500086,319.6641846
3.349166632,321.592865
3.350833416,319.0722961
3.3525002,318.746521
3.354166746,319.0943604
3.35583353,319.8046265
3.357499838,319.961853
3.359166622,318.1170959
3.360833406,320.1305847
3.362499952,318.6913147
3.364166737,320.4742737
3.365833282,319.6355896
3.367500067,320.129364
3.369166851,320.4377747
3.370833397,318.3321228
3.372500181,318.2493896
3.374166727,318.3727417
3.375833273,318.3761902
3.377500057,319.6557007
3.379166603,320.1765747
3.380833387,319.4153748
3.382499933,317.7125244
3.384166718,319.0582275
3.385833502,320.1130676
3.387500048,319.9269104
3.389166832,320.3171692
3.390833378,319.80896
3.392500162,321.2531128
3.394166708,319.6879578
3.395833254,319.5220642
3.397500038,319.7814636
3.399166584,318.0602722
3.400833368,318.4702148
3.402500153,319.9120789
3.404166698,319.7658997
3.405833483,319.0672607
3.407500029,317.9715576
3.409166813,317.7221985
3.410833597,319.579834
3.412499905,319.1341858
3.414166689,318.9906006
3.415833235,319.1373901
3.417500019,319.1934814
3.419166803,318.6974792
3.420833349,319.5914917
3.422500134,319.728241
3.424166679,318.7888184
3.425833464,320.3954773
3.427500248,319.04245
3.429166555,319.6457825
3.43083334,319.3022766
3.432499886,318.5526428
3.43416667,319.6885376
3.435833454,320.0304871
3.4375,318.9475098
3.439166784,318.5716248
3.44083333,318.7192383
3.442500114,317.6964111
3.444166899,319.0670776
3.445833445,321.0769348
3.44749999,319.800293
3.449166536,318.473175
3.450833321,319.1598206
3.452500105,317.8492432
3.454166651,317.2795715
3.455833435,318.8416748
3.457499981,317.7849121
3.459166765,318.8378601
3.460833549,317.3900146
3.462500095,319.3800049
3.46416688,317.3473206
3.465833187,319.9995117
3.467499971,318.6091614
3.469166756,319.8225403
3.470833302,319.3500671
3.472500086,319.6872864
3.474166632,319.4607544
3.475833416,320.0014038
3.4775002,319.2280273
3.479166746,321.089386
3.48083353,317.8574219
3.482499838,318.486908
3.484166622,317.8685913
3.485833406,319.041748
3.487499952,319.962738
3.489166737,317.5197144
3.490833282,318.6082458
3.492500067,319.3238831
3.494166851,319.0707397
3.495833397,317.0392151
3.497500181,320.291626
3.499166727,319.9377441
3.500833273,319.9376831
3.502500057,320.3856812
3.504166603,318.6411743
3.505833387,319.3460999
3.507499933,319.8086243
3.509166718,319.712677
3.510833502,319.0841064
3.512500048,318.7765198
3.514166832,318.526062
3.515833378,317.7029419
3.517500162,319.2294922
3.519166708,320.3136597
3.520833254,319.9441833
3.522500038,320.0963135
3.524166584,319.8301086
3.525833368,320.2861328
3.527500153,317.0610352
3.529166698,320.7812195
3.530833483,318.1403809
3.532500029,318.7901917
3.534166813,319.8595581
3.535833597,319.3291931
3.537499905,320.3804321
3.539166689,318.7855835
3.540833235,317.9559937
3.542500019,319.8599243
3.544166803,320.2015076
3.545833349,317.2604065
3.547500134,320.2547607
3.549166679,317.982666
3.550833464,318.7212524
3.552500248,317.3260803
3.554166555,318.0735168
3.55583334,319.318512
3.557499886,318.0842896
3.55916667,319.6140137
3.560833454,317.9921875
3.5625,319.4576111
3.564166784,319.0589294
3.56583333,321.6290588
3.567500114,320.8037109
3.569166899,320.4971619
3.570833445,319.657959
3.57249999,319.3080139
3.574166536,319.1757507
3.575833321,319.1789856
3.577500105,322.0981445
3.579166651,318.2260437
3.580833435,319.013092
3.582499981,320.8000488
3.584166765,316.0432434
3.585833549,318.8621521
3.587500095,318.8703308
3.58916688,317.3790894
3.590833187,320.2162476
3.592499971,319.0116577
3.594166756,319.9235535
3.595833302,317.3207703
3.597500086,319.3140259
3.599166632,318.2792053
3.600833416,319.1361389
3.6025002,318.9890747
3.604166746,320.0303955
3.60583353,318.2770691
3.607499838,319.6305237
3.609166622,318.6093445
3.610833406,320.1282043
3.612499952,319.4971008
3.614166737,318.0009766
3.615833282,318.6014709
3.617500067,318.3259888
3.619166851,318.2191162
3.620833397,319.1798401
3.622500181,319.471344
3.624166727,319.1720276
3.625833273,321.1131897
3.627500057,318.499054
3.629166603,316.8707886
3.630833387,319.0698547
3.632499933,317.6199341
3.634166718,319.475647
3.635833502,318.8076782
3.637500048,318.0731506
3.639166832,318.5805359
3.640833378,319.5775452
3.642500162,319.0674438
3.644166708,320.0123596
3.645833254,319.2396545
3.647500038,318.0733643
3.649166584,317.2459717
3.650833368,319.0889587
3.652500153,318.1104126
3.654166698,318.6094666
3.655833483,318.9801025
3.657500029,319.5884094
3.659166813,319.7286987
3.660833597,318.3505859
3.662499905,317.955658
3.664166689,317.5499268
3.665833235,317.9924927
3.667500019,318.3638306
3.669166803,317.1452942
3.670833349,318.200531
3.672500134,319.0312195
3.674166679,317.9975586
3.675833464,316.4535217
3.677500248,316.5558167
3.679166555,317.8431091
3.68083334,318.2315674
3.682499886,319.0787964
3.68416667,318.2661133
3.685833454,318.6890259
3.6875,318.4871216
3.689166784,318.7558594
3.69083333,319.1921387
3.692500114,317.1315308
3.694166899,320.2976685
3.695833445,318.9819031
3.69749999,318.8136597
3.699166536,318.559845
3.700833321,316.8650513
3.702500105,319.6738281
3.704166651,318.0628662
3.705833435,318.2070618
3.707499981,319.9620361
3.709166765,318.574585
3.710833549,319.8273926
3.712500095,317.5488281
3.71416688,318.1105652
3.715833187,318.217804
3.717499971,317.4712219
3.719166756,318.717865
3.720833302,317.7435913
3.722500086,315.8613586
3.724166632,317.5279541
3.725833416,320.0422363
3.7275002,319.0536499
3.729166746,318.1175842
3.73083353,317.8857117
3.732499838,318.0881348
3.734166622,317.2637939
3.735833406,318.3822327
3.737499952,318.3953247
3.739166737,318.575531
3.740833282,317.9789124
3.742500067,319.8070984
3.744166851,318.9568481
3.745833397,316.4871826
3.747500181,319.158783
3.749166727,316.1386719
3.750833273,316.4883423
3.752500057,318.567688
3.754166603,321.6513367
3.755833387,318.3582764
3.757499933,319.5887756
3.759166718,316.1300964
3.760833502,318.5865784
3.762500048,318.4973145
3.764166832,318.6397705
3.765833378,319.0023804
3.767500162,317.5984802
3.769166708,318.1975098
3.770833254,319.446991
3.772500038,318.4454041
3.774166584,318.8302307
3.775833368,319.457489
3.777500153,316.336731
3.779166698,318.9512024
3.780833483,317.5054626
3.782500029,319.3433838
3.784166813,318.3534851
3.785833597,318.0178833
3.787499905,318.3190918
3.789166689,317.4960327
3.790833235,317.7247925
3.792500019,320.9712524
3.794166803,320.2293091
3.795833349,317.219696
3.797500134,319.295166
3.799166679,318.6963196
3.800833464,317.8009338
3.802500248,315.6502075
3.804166555,318.1549377
3.80583334,316.8944092
3.807499886,317.4733582
3.80916667,317.6184082
3.810833454,317.9954834
3.8125,319.0237122
3.814166784,319.3676453
3.81583333,318.3921814
3.817500114,318.6177673
3.819166899,318.6968994
3.820833445,319.8401184
3.82249999,316.1442566
3.824166536,317.694519
3.825833321,317.5700378
3.827500105,318.7511902
3.829166651,317.4654846
3.830833435,317.1368408
3.832499981,317.3387451
3.834166765,316.5829468
3.835833549,317.7402344
3.837500095,319.0166016
3.83916688,318.2547913
3.840833187,318.7112122
3.842499971,320.0465698
3.844166756,318.3461914
3.845833302,317.5935669
3.847500086,318.2607727
3.849166632,317.0582581
3.850833416,318.8884583
3.8525002,318.939209
3.854166746,316.4810486
3.85583353,318.79422
3.857499838,319.0292358
3.859166622,316.9474792
3.860833406,318.5573425
3.862499952,317.5220947
3.864166737,317.4067383
3.865833282,317.6812134
3.867500067,317.8110046
3.869166851,318.6954956
3.870833397,316.8713379
3.872500181,317.6275635
3.874166727,318.4538269
3.875833273,318.3983154
3.877500057,318.8473816
3.879166603,316.8938904
3.880833387,318.0151978
3.882499933,318.3969116
3.884166718,319.065033
3.885833502,318.3697815
3.887500048,318.5063171
3.889166832,320.3336792
3.890833378,318.8742065
3.892500162,317.7707825
3.894166708,318.6140747
3.895833254,317.984314
3.897500038,318.8177795
3.899166584,318.8898926
3.900833368,316.3792114
3.902500153,319.0869751
3.904166698,318.4719238
3.905833483,318.1270447
3.907500029,317.8208008
3.909166813,318.4281616
3.910833597,319.085968
3.912499905,317.5090637
3.914166689,316.977356
3.915833235,317.3534851
3.917500019,316.4783325
3.919166803,319.3346863
3.920833349,319.9232483
3.922500134,319.5097046
3.924166679,320.7051086
3.925833464,317.8379211
3.927500248,317.1656799
3.929166555,319.0717468
3.93083334,316.3233643
3.932499886,316.1054993
3.93416667,315.8733215
3.935833454,318.4434814
3.9375,317.6660767
3.939166784,318.0168152
3.94083333,315.8652039
3.942500114,317.4189453
3.944166899,318.2475891
3.945833445,316.2191772
3.94749999,318.026062
3.949166536,317.8713074
3.950833321,317.4692078
3.952500105,317.9350586
3.954166651,317.7618713
3.955833435,318.9823914
3.957499981,318.319519
3.959166765,317.0684509
3.960833549,317.4822693
3.962500095,317.2254333
3.96416688,318.5106201
3.965833187,318.0299988
3.967499971,316.9050903
3.969166756,318.2391663
3.970833302,318.9875183
3.972500086,316.9732971
3.974166632,318.9142761
3.975833416,318.0354309
3.9775002,317.4191589
3.979166746,316.9183044
3.98083353,316.8335571
3.982499838,317.4102783
3.984166622,317.7590637
3.985833406,318.0845032
3.987499952,318.5657043
3.989166737,317.4264832
3.990833282,317.4055176
3.992500067,317.7643433
3.994166851,318.8190308
3.995833397,317.8206177
3.997500181,317.7660217
3.999166727,318.7921143
4.000833511,316.4397583
4.002500057,315.8640137
4.004166603,317.6996155
4.005833626,317.5378418
4.007500172,318.8152466
4.009166718,318.4602661
4.010833263,317.3387756
4.012499809,318.5722046
4.014166832,317.4741516
4.015833378,316.9655762
4.017499924,319.4492798
4.019166946,318.5726624
4.020833492,317.7035828
4.022500038,316.8182068
4.024166584,317.8910522
4.025833607,319.4671631
4.027500153,317.888092
4.029166698,319.2113037
4.030833244,317.303009
4.03249979,319.6986389
4.034166813,317.8352966
4.035833359,316.656311
4.037499905,318.4956665
4.039166927,316.6999512
4.040833473,316.5281982
4.042500019,318.0603943
4.044167042,317.530304
4.045833111,316.9447021
4.047500134,317.250885
4.049166679,316.2294312
4.050833225,318.3406677
4.052500248,315.40448
4.054166794,317.765625
4.05583334,316.5369568
4.057499886,316.5545959
4.059166908,316.1882629
4.060833454,317.5476379
4.0625,317.024292
4.064166546,317.7103882
4.065833092,318.3625793
4.067500114,318.0328979
4.06916666,318.1831665
4.070833206,315.9993286
4.072500229,318.3844299
4.074166775,318.0221863
4.075833321,316.8681641
4.077500343,318.9790344
4.079166889,317.7664185
4.080833435,317.5154419
4.082499981,317.6942139
4.084166527,316.320282
4.085833549,318.2400513
4.087500095,316.4276123
4.089166641,317.5560608
4.090833187,317.2737427
4.09250021,317.2073059
4.094166756,316.2711792
4.095833302,317.3004761
4.097500324,318.0184631
4.099166393,318.7774048
4.100833416,316.5613098
4.102499962,317.9555359
4.104166508,319.1727905
4.10583353,317.528656
4.107500076,316.191925
4.109166622,315.948761
4.110833645,316.5187988
4.112500191,318.8126526
4.114166737,319.9237061
4.115833282,316.5432434
4.117499828,318.4698181
4.119166851,317.3708801
4.120833397,317.3813782
4.122499943,319.025116
4.124166489,318.8761902
4.125833511,316.5050964
4.127500057,319.0835876
4.129166603,317.3024902
4.130833626,317.9111328
4.132500172,318.88974
4.134166718,317.7383118
4.135833263,317.8279724
4.137499809,318.7532349
4.139166832,318.5978394
4.140833378,314.9065552
4.142499924,317.0875549
4.144166946,317.9391479
4.145833492,318.5100708
4.147500038,318.4831238
4.149166584,317.8082275
4.150833607,316.7313843
4.152500153,314.899292
4.154166698,317.2135315
4.155833244,318.2084351
4.15749979,318.1959229
4.159166813,318.0514221
4.160833359,317.6411743
4.162499905,317.3511047
4.164166927,319.3233337
4.165833473,320.0858154
4.167500019,316.9058533
4.169167042,317.231842
4.170833111,317.3796387
4.172500134,316.6065369
4.174166679,317.6551208
4.175833225,316.6330261
4.177500248,316.5593262
4.179166794,314.5986328
4.18083334,318.7907104
4.182499886,319.2387695
4.184166908,317.8909912
4.185833454,317.954895
4.1875,318.1542358
4.189166546,317.5157776
4.190833092,318.951355
4.192500114,317.5060425
4.19416666,316.7229919
4.195833206,317.9060364
4.197500229,318.813385
4.199166775,318.8925781
4.200833321,317.6635132
4.202500343,317.7260437
4.204166889,316.7354126
4.205833435,317.6670227
4.207499981,318.4062805
4.209166527,318.4868164
4.210833549,316.1418152
4.212500095,318.4299622
4.214166641,318.8876648
4.215833187,318.9668274
4.21750021,315.2124939
4.219166756,318.5508423
4.220833302,318.2599792
4.222500324,317.5331726
4.224166393,316.2151184
4.225833416,319.2773438
4.227499962,319.3562927
4.229166508,315.6492004
4.23083353,318.2107544
4.232500076,320.1835327
4.234166622,319.1642151
4.235833645,316.2783203
4.237500191,317.8782654
4.239166737,318.728363
4.240833282,317.7159729
4.242499828,317.6621399
4.244166851,318.2218933
4.245833397,318.4555969
4.247499943,317.5567627
4.249166489,316.1810913
4.250833511,318.9358215
4.252500057,316.7017212
4.254166603,314.5464172
4.255833626,318.0043945
4.257500172,317.0135803
4.259166718,317.7660522
4.260833263,316.6774292
4.262499809,317.6383667
4.264166832,316.6986694
4.265833378,315.9575806
4.267500401,318.4415283
4.26916647,317.134552
4.270833492,318.2101135
4.272500038,319.029541
4.274167061,316.5521545
4.275833607,317.2007751
4.277499676,317.8857117
4.279166698,318.1494141
4.280833244,317.0516052
4.282500267,318.8431396
4.284166813,317.2963257
4.285833359,319.5269165
4.287499905,317.2559509
4.289166927,316.7191467
4.290833473,317.5723572
4.292500496,318.6852417
4.294166565,319.0299377
4.295833111,316.9238586
4.297500134,317.4302368
4.299166679,315.5944824
4.300833702,318.2511902
4.302499771,317.600708
4.304166794,318.1245422
4.30583334,318.1700134
4.307500362,317.7255554
4.309166908,316.6018982
4.310833454,317.6924744
4.3125,315.7225342
4.314166546,317.4871826
4.315833569,317.9236755
4.317500114,318.1542358
4.31916666,318.8348999
4.320833206,317.884552
4.322500229,319.1638489
4.324166775,317.831543
4.325833797,317.7503052
4.327499866,317.1100769
4.329166889,316.42276
4.330833435,319.0736389
4.332499981,318.4526062
4.334167004,316.8742676
4.335833073,317.8426208
4.337500095,316.6808777
4.339166641,318.3819275
4.340833664,318.1349487
4.34250021,317.4657288
4.344166756,317.4373779
4.345833302,317.4830933
4.347500324,317.7900391
4.34916687,317.4685364
4.350833416,315.3406372
4.352499962,316.2354736
4.354166508,319.3875427
4.35583353,316.7518311
4.357500076,316.6791992
4.359167099,318.717926
4.360833168,317.032959
4.362500191,317.7580566
4.364166737,314.8712769
4.365833759,317.1146545
4.367500305,316.901001
4.369166374,316.9257202
4.370833397,316.4523621
4.372499943,317.6079712
4.374166965,318.2714539
4.375833511,318.5498047
4.377500057,317.1904602
4.379166603,316.4559937
4.380833626,318.1516418
4.382500172,316.0884705
4.384167194,314.6448059
4.385833263,316.2891846
4.387499809,316.4361267
4.389166832,317.1990356
4.390833378,318.756897
4.392500401,317.1430969
4.39416647,316.6044006
4.395833492,317.5314941
4.397500038,317.4840698
4.399167061,317.9720764
4.400833607,317.4576111
4.402499676,316.8344727
4.404166698,318.0419617
4.405833244,314.5368042
4.407500267,318.1313782
4.409166813,316.6493835
4.410833359,317.9028015
4.412499905,319.5705872
4.414166927,315.7483215
4.415833473,317.6821899
4.417500496,316.4353333
4.419166565,316.7165833
4.420833111,317.5687866
4.422500134,316.022583
4.424166679,318.134552
4.425833702,316.1369934
4.427499771,316.5820618
4.429166794,318.4262695
4.43083334,317.4559326
4.432500362,316.1167908
4.434166908,317.0671387
4.435833454,316.3200684
4.4375,316.774292
4.439166546,316.9577026
4.440833569,318.07547
4.442500114,316.8919678
4.44416666,318.8085022
4.445833206,317.1273499
4.447500229,318.1913757
4.449166775,315.8252869
4.450833797,318.1236267
4.452499866,318.583374
4.454166889,316.2792664
4.455833435,317.4567261
4.457499981,318.4255066
4.459167004,316.9866638
4.460833073,318.4311829
4.462500095,316.9434509
4.464166641,316.9620972
4.465833664,316.1765747
4.46750021,317.5633545
4.469166756,317.7326355
4.470833302,317.4489136
4.472500324,316.7616272
4.47416687,318.045929
4.475833416,316.6200256
4.477499962,316.6387634
4.479166508,316.4757385
4.48083353,317.0406494
4.482500076,317.3578491
4.484167099,317.9099731
4.485833168,316.1907349
4.487500191,318.969696
4.489166737,317.977356
4.490833759,318.0655212
4.492500305,314.6962891
4.494166374,318.9897461
4.495833397,317.0898132
4.497499943,315.898407
4.499166965,316.6125488
4.500833511,317.2227478
4.502500057,315.6806335
4.504166603,315.8221436
4.505833626,318.1659546
4.507500172,318.3440247
4.509167194,315.8781738
4.510833263,314.9391479
4.512499809,316.7104187
4.514166832,315.989624
4.515833378,316.6306763
4.517500401,315.6106567
4.51916647,317.4154663
4.520833492,315.6386719
4.522500038,318.3735962
4.524167061,317.7635498
4.525833607,318.7807617
4.527499676,318.8277893
4.529166698,317.2948914
4.530833244,316.6535339
4.532500267,319.1092529
4.534166813,315.9559021
4.535833359,316.1735535
4.537499905,317.4720459
4.539166927,316.5534668
4.540833473,316.1091309
4.542500496,317.7109985
4.544166565,317.5944214
4.545833111,317.9013672
4.547500134,316.8871765
4.549166679,316.1404114
4.550833702,316.5927429
4.552499771,318.8511658
4.554166794,318.2720947
4.55583334,318.0043335
4.557500362,318.2953796
4.559166908,316.7979431
4.560833454,316.7120667
4.5625,317.5394897
4.564166546,317.2983093
4.565833569,318.048645
4.567500114,316.5664368
4.56916666,316.7271729
4.570833206,315.0410156
4.572500229,317.4408875
4.574166775,316.6581116
4.575833797,315.4672241
4.577499866,317.3806763
4.579166889,316.6928711
4.580833435,317.8995972
4.582499981,315.6818848
4.584167004,316.0587158
4.585833073,319.5518188
4.587500095,316.6651001
4.589166641,318.056488
4.590833664,317.0906067
4.59250021,317.8456421
4.594166756,316.7310181
4.595833302,316.5374451
4.597500324,316.605011
4.59916687,317.8132019
4.600833416,317.523468
4.602499962,316.4516296
4.604166508,318.1305847
4.60583353,318.2338257
4.607500076,317.7672424
4.609167099,317.4309387
4.610833168,317.0839233
4.612500191,318.1125183
4.614166737,316.0063171
4.615833759,317.7463684
4.617500305,316.9483643
4.619166374,316.3878174
4.620833397,316.4453125
4.622499943,316.7716064
4.624166965,315.6698303
4.625833511,318.5480042
4.627500057,316.3993225
4.629166603,316.1569824
4.630833626,318.541626
4.632500172,318.1312561
4.634167194,317.8540344
4.635833263,315.436676
4.637499809,316.2570496
4.639166832,316.3332214
4.640833378,315.7845459
4.642500401,318.170166
4.64416647,317.5772095
4.645833492,316.8274536
4.647500038,315.7688904
4.649167061,317.9208374
4.650833607,316.8575745
4.652499676,316.2560425
4.654166698,318.0871582
4.655833244,317.173645
4.657500267,317.1197815
4.659166813,317.972168
4.660833359,316.3489075
4.662499905,317.3554688
4.664166927,315.7808228
4.665833473,317.1490784
4.667500496,316.5880432
4.669166565,318.8054199
4.670833111,317.1087952
4.672500134,315.6563721
4.674166679,316.452301
4.675833702,316.7721558
4.677499771,317.2010498
4.679166794,318.3730774
4.68083334,318.4448547
4.682500362,316.3326416
4.684166908,317.4343262
4.685833454,314.8379822
4.6875,316.8948669
4.689166546,317.1707764
4.690833569,319.0020142
4.692500114,318.4884949
4.69416666,316.1573486
4.695833206,317.144989
4.697500229,316.5655823
4.699166775,317.1574097
4.700833797,316.6326904
4.702499866,317.963501
4.704166889,317.01297
4.705833435,316.8076477
4.707499981,317.6141968
4.709167004,318.1423035
4.710833073,318.0470276
4.712500095,315.7897949
4.714166641,314.9700928
4.715833664,315.7000122
4.71750021,316.2903442
4.719166756,317.3210449
4.720833302,316.9112244
4.722500324,317.0731812
4.72416687,314.8422852
4.725833416,317.9082642
4.727499962,316.1470642
4.729166508,316.2961426
4.73083353,317.2099609
4.732500076,316.5656128
4.734167099,317.2327576
4.735833168,318.3295593
4.737500191,317.6167297
4.739166737,318.4176636
4.740833759,316.8348083
4.742500305,315.3583069
4.744166374,317.1536255
4.745833397,316.4553223
4.747499943,316.5846252
4.749166965,317.3133545
4.750833511,317.2252808
4.752500057,319.633728
4.754166603,317.014801
4.755833626,316.7441101
4.757500172,316.6905212
4.759167194,316.7900085
4.760833263,315.9959717
4.762499809,318.2789612
4.764166832,315.677063
4.765833378,317.3084717
4.767500401,317.4747314
4.76916647,318.6504822
4.770833492,316.8865967
4.772500038,316.1108704
4.774167061,317.6633606
4.775833607,318.8386536
4.777499676,317.8357544
4.779166698,316.7539368
4.780833244,317.7056274
4.782500267,315.9521484
4.784166813,316.6115723
4.785833359,318.8494568
4.787499905,317.2676086
4.789166927,316.7511292
4.790833473,316.1437378
4.792500496,317.3742676
4.794166565,316.0673218
4.795833111,316.2593689
4.797500134,315.749054
4.799166679,319.8108521
4.800833702,317.9320984
4.802499771,316.5768127
4.804166794,316.6509399
4.80583334,317.6451416
4.807500362,317.5917969
4.809166908,317.6876831
4.810833454,317.6924744
4.8125,317.3457031
4.814166546,317.8786316
4.815833569,315.2316589
4.817500114,317.0804138
4.81916666,319.5626221
4.820833206,318.7013245
4.822500229,319.4993286
4.824166775,317.6036682
4.825833797,314.5894165
4.827499866,316.6236267
4.829166889,316.9472046
4.830833435,317.1494751
4.832499981,317.0584717
4.834167004,316.9621887
4.835833073,316.0744629
4.837500095,316.7322083
4.839166641,317.0286865
4.840833664,316.5905151
4.84250021,318.3440857
4.844166756,316.909729
4.845833302,317.302948
4.847500324,317.6488953
4.84916687,316.4771118
4.850833416,317.8897705
4.852499962,316.5086975
4.854166508,317.4543457
4.85583353,317.1014099
4.857500076,317.5514526
4.859167099,317.7818298
4.860833168,316.6484985
4.862500191,316.6854858
4.864166737,314.6841431
4.865833759,315.795929
4.867500305,318.4213257
4.869166374,318.4461365
4.870833397,317.6349487
4.872499943,316.5616455
4.874166965,316.6500244
4.875833511,317.5325623
4.877500057,318.835968
4.879166603,317.0965881
4.880833626,317.1353455
4.882500172,315.3215332
4.884167194,316.9781189
4.885833263,317.6773376
4.887499809,316.3381348
4.889166832,316.6318665
4.890833378,316.1395569
4.892500401,318.0257263
4.89416647,315.9034424
4.895833492,317.3900757
4.897500038,315.9138794
4.899167061,318.0247803
4.900833607,317.9387817
4.902499676,317.5173645
4.904166698,316.1128845
4.905833244,316.7806091
4.907500267,317.54953
4.909166813,316.4541931
4.910833359,318.1629333
4.912499905,318.5705261
4.914166927,315.5187988
4.915833473,317.1907959
4.917500496,317.5830994
4.919166565,316.0883789
4.920833111,317.7987976
4.922500134,316.7908936
4.924166679,318.0001526
4.925833702,318.4142761
4.927499771,316.8207397
4.929166794,317.5827637
4.93083334,317.4916992
4.932500362,315.6975708
4.934166908,317.2094421
4.935833454,317.1863098
4.9375,317.0768127
4.939166546,316.4735107
4.940833569,316.7915039
4.942500114,319.4935608
4.94416666,317.2764282
4.945833206,316.4204102
4.947500229,314.2947083
4.949166775,316.5899048
4.950833797,317.8907166
4.952499866,316.5555115
4.954166889,316.4952698
4.955833435,316.5569458
4.957499981,317.2914429
4.959167004,315.9724426
4.960833073,316.9897766
4.962500095,317.6246643
4.964166641,318.1367798
4.965833664,315.709198
4.96750021,318.6680908
4.969166756,317.2889404
4.970833302,317.4581909
4.972500324,317.1632996
4.97416687,315.2503662
4.975833416,316.4866333
4.977499962,316.2043152
4.979166508,316.7828369
4.98083353,317.1641541
4.982500076,318.7286987
4.984167099,316.8233032
4.985833168,317.1633911
4.987500191,316.5527039
4.989166737,317.2015686
4.990833759,315.5793457