1,,
Time (min),Intensity (a.u.),
0.0008333333535,319.3674622,
0.002500000177,320.2908325,
0.004166666884,317.9868469,
0.005833333358,320.3939819,
0.007500000298,317.366272,
0.009166667238,319.4334412,
0.01083333418,320.6999817,
0.01250000019,320.208374,
0.01416666713,319.1730347,
0.01583333313,320.0170288,
0.01750000194,318.7651367,
0.01916666701,321.3598633,
0.02083333395,319.268158,
0.02250000089,320.866394,
0.02416666783,320.3764954,
0.02583333477,319.5142212,
0.02749999985,320.4634399,
0.02916666679,320.4172974,
0.03083333373,319.1190186,
0.03250000253,318.0085144,
0.03416666761,319.0333862,
0.03583333641,318.7843933,
0.03750000149,320.7941895,
0.03916667029,320.2498474,
0.04083333537,321.0038452,
0.04250000045,320.2283325,
0.04416666925,320.122345,
0.04583333433,320.0589294,
0.04750000313,318.9757385,
0.04916666821,319.37323,
0.05083333328,318.5577393,
0.05250000209,318.9694214,
0.05416666716,321.3274536,
0.05583333597,322.040802,
0.05750000104,319.2305603,
0.05916666612,318.6887207,
0.06083333492,317.9822998,
0.0625,319.9416199,
0.06416667253,321.4285583,
0.0658333376,319.7380066,
0.06750000268,320.1625671,
0.06916666776,319.665802,
0.07083333284,322.124054,
0.07249999791,319.8806763,
0.07416667044,319.1842957,
0.07583333552,319.0617981,
0.0775000006,319.167511,
0.07916666567,318.1307983,
0.08083333075,320.4855957,
0.08250000328,319.4859924,
0.08416666836,320.2356873,
0.08583333343,321.815918,
0.08749999851,321.2687378,
0.08916666359,318.9289246,
0.09083333611,320.1093445,
0.09250000119,319.2098999,
0.09416666627,319.6570435,
0.09583333135,319.587738,
0.09749999642,321.15271,
0.09916666895,319.6698303,
0.100833334,319.7267456,
0.1024999991,319.6991577,
0.1041666642,319.1878052,
0.1058333293,320.7036133,
0.1075000018,318.2188416,
0.1091666669,320.3786621,
0.1108333319,320.7504578,
0.112499997,319.375885,
0.1141666621,318.5012512,
0.1158333346,319.6156311,
0.1174999997,318.2850342,
0.1191666648,321.3656921,
0.1208333299,322.3562012,
0.1224999949,320.9839783,
0.1241666749,320.6657715,
0.1258333325,321.2575684,
0.1274999976,319.9243469,
0.1291666627,321.1228943,
0.1308333278,320.1074829,
0.1325000077,318.4494629,
0.1341666728,317.5507202,
0.1358333379,318.9457092,
0.137500003,319.5401306,
0.1391666681,319.8572083,
0.1408333331,320.2256165,
0.1424999982,319.0057373,
0.1441666782,317.906311,
0.1458333284,319.4483032,
0.1475000083,319.4853821,
0.1491666585,317.6599121,
0.1508333385,320.9299927,
0.1525000036,320.5680542,
0.1541666687,318.3592224,
0.1558333337,320.0888977,
0.1574999988,317.958313,
0.1591666639,319.4303589,
0.1608333439,319.499115,
0.162499994,319.9815063,
0.164166674,319.4465942,
0.1658333242,319.4280701,
0.1675000042,319.7831421,
0.1691666692,318.1404724,
0.1708333343,320.4621582,
0.1724999994,319.5778198,
0.1741666645,319.5380554,
0.1758333296,319.1494446,
0.1775000095,319.4014893,
0.1791666597,322.2955017,
0.1808333397,318.2422485,
0.1824999899,320.3695679,
0.1841666698,320.540802,
0.1858333498,318.4723816,
0.1875,319.7662964,
0.18916668,319.3034973,
0.1908333302,320.5624084,
0.1925000101,317.8108215,
0.1941666752,319.591095,
0.1958333403,320.63974,
0.1975000054,320.178772,
0.1991666704,317.5914001,
0.2008333355,319.8426514,
0.2025000155,319.7076721,
0.2041666657,317.3721924,
0.2058333457,320.7314758,
0.2074999958,320.1721802,
0.2091666758,318.8332214,
0.2108333409,318.9798279,
0.212500006,321.0463867,
0.214166671,318.5857849,
0.2158333361,317.225708,
0.2175000012,320.4292908,
0.2191666812,321.9370422,
0.2208333313,319.2888184,
0.2225000113,318.9290161,
0.2241666615,319.6565247,
0.2258333415,318.2145081,
0.2275000066,319.6016235,
0.2291666716,317.8902893,
0.2308333367,320.0609436,
0.2325000018,318.3747864,
0.2341666669,319.6303711,
0.2358333468,319.1694031,
0.237499997,319.7332458,
0.239166677,319.0489197,
0.2408333272,318.217926,
0.2425000072,318.5758362,
0.2441666722,319.0664063,
0.2458333373,319.8146362,
0.2475000024,318.8200989,
0.2491666675,317.9707642,
0.2508333325,318.5022888,
0.2524999976,319.0998535,
0.2541666627,319.6708374,
0.2558333278,318.8088379,
0.2574999928,319.2183228,
0.2591666579,319.8757324,
0.2608333528,319.5031433,
0.2624999881,317.1802368,
0.264166683,317.710968,
0.2658333182,318.7622986,
0.2675000131,319.0313416,
0.2691666484,320.035553,
0.2708333433,318.1401367,
0.2725000083,318.99823,
0.2741666734,320.2796936,
0.2758333385,318.2842407,
0.2775000036,318.5826416,
0.2791666687,317.4405518,
0.2808333337,319.3633423,
0.2824999988,319.174469,
0.2841666937,319.4117126,
0.285833329,319.931427,
0.287499994,317.8664856,
0.2891666591,321.2984619,
0.290833354,318.5271912,
0.2925000191,317.5326233,
0.2941666543,321.7793274,
0.2958333194,320.1391907,
0.2975000143,317.6834412,
0.2991666794,317.8546448,
0.3008333445,319.1525879,
0.3024999797,318.7664795,
0.3041666746,321.4168701,
0.3058333397,319.299469,
0.3075000048,316.2303162,
0.3091666996,319.9351501,
0.3108333349,318.5881042,
0.3125,318.6639404,
0.3141666651,318.7658691,
0.31583336,317.0881042,
0.317500025,318.0976868,
0.3191666603,319.5671082,
0.3208333254,317.6782532,
0.3225000203,318.4170532,
0.3241666853,319.1285095,
0.3258333504,318.1491699,
0.3274999857,316.5264893,
0.3291666806,319.0220947,
0.3308333457,320.6549988,
0.3325000107,319.2545471,
0.3341666758,316.6278381,
0.3358333409,318.906311,
0.337500006,318.8309021,
0.339166671,320.1962585,
0.3408333361,317.9139099,
0.342500031,320.6665955,
0.3441666663,318.3788757,
0.3458333313,320.1799316,
0.3474999964,319.2356873,
0.3491666913,319.1365356,
0.3508333564,318.0857849,
0.3524999917,317.7012024,
0.3541666567,318.8884583,
0.3558333516,319.4098206,
0.3575000167,318.4891357,
0.3591666818,318.6757813,
0.360833317,320.8253479,
0.3625000119,319.1789551,
0.364166677,319.5056458,
0.3658333421,318.8008423,
0.3675000072,318.8108521,
0.3691666722,319.3430176,
0.3708333373,319.5224915,
0.3725000024,319.7167664,
0.3741666675,319.6662903,
0.3758333623,316.940918,
0.3774999976,319.9685059,
0.3791666627,319.1012573,
0.3808333278,319.2310181,
0.3825000226,317.2905579,
0.3841666877,318.0899353,
0.385833323,317.2245483,
0.3874999881,318.9609985,
0.389166683,318.296936,
0.390833348,319.1558533,
0.3925000131,318.9378967,
0.3941666484,318.536377,
0.3958333433,318.322876,
0.3975000083,317.9945679,
0.3991666734,318.8833008,
0.4008333385,318.4560242,
0.4025000036,318.0759277,
0.4041666687,319.8068542,
0.4058333337,319.2606506,
0.4074999988,317.6694031,
0.4091666937,319.5380249,
0.410833329,320.2394714,
0.412499994,320.9400024,
0.4141666591,317.9318237,
0.415833354,319.4015808,
0.4175000191,319.2588196,
0.4191666543,318.4785156,
0.4208333194,319.0991516,
0.4225000143,318.4905701,
0.4241666794,317.9462891,
0.4258333445,319.5765686,
0.4274999797,317.9607239,
0.4291666746,318.2597961,
0.4308333397,317.4737244,
0.4325000048,319.5211182,
0.4341666996,318.9068604,
0.4358333349,318.1702881,
0.4375,320.1338196,
0.4391666651,318.6032715,
0.44083336,318.9818726,
0.442500025,319.9351196,
0.4441666603,317.7244568,
0.4458333254,317.9248962,
0.4475000203,317.440979,
0.4491666853,318.5020447,
0.4508333504,318.165863,
0.4524999857,318.2906799,
0.4541666806,321.0545959,
0.4558333457,319.1749268,
0.4575000107,318.4917908,
0.4591666758,319.1083984,
0.4608333409,319.0561218,
0.462500006,319.4469604,
0.464166671,319.6876221,
0.4658333361,320.0289307,
0.467500031,316.8300781,
0.4691666663,320.0621033,
0.4708333313,317.4827881,
0.4724999964,318.9840088,
0.4741666913,319.3582153,
0.4758333564,317.3518372,
0.4774999917,317.0976868,
0.4791666567,317.0865479,
0.4808333516,318.4499817,
0.4825000167,318.0896606,
0.4841666818,318.9422913,
0.485833317,318.2156067,
0.4875000119,317.6125488,
0.489166677,318.9099426,
0.4908333421,317.1434937,
0.4925000072,319.0471802,
0.4941666722,318.8902893,
0.4958333373,319.3213806,
0.4975000024,317.8560791,
0.4991666675,317.1687317,
0.5008333325,317.827301,
0.5024999976,320.0858765,
0.5041666627,320.757843,
0.5058333278,319.0570068,
0.5074999928,318.541687,
0.5091666579,318.4858093,
0.510833323,320.6097717,
0.5124999881,318.2048035,
0.5141666532,316.1652832,
0.5158333182,318.8644409,
0.5175000429,318.3829041,
0.5191666484,318.6606445,
0.5208333135,318.6895447,
0.5224999785,317.9548035,
0.5241667032,318.7502747,
0.5258333683,319.8625793,
0.5274999738,318.3396912,
0.5291666389,321.3903809,
0.5308333635,319.1827087,
0.5325000286,316.0227661,
0.5341666341,318.7149353,
0.5358333588,320.1555176,
0.5375000238,320.4031982,
0.5391666889,319.7516785,
0.540833354,320.0511169,
0.5424999595,317.7015381,
0.5441666842,316.7267456,
0.5458333492,318.5903015,
0.5475000143,318.1451721,
0.5491666794,319.9272461,
0.5508333445,319.0092468,
0.5525000095,316.1831055,
0.5541666746,318.40625,
0.5558333993,318.1793823,
0.5575000048,318.5169983,
0.5591666698,318.5604248,
0.5608333349,317.737854,
0.5625,319.0897827,
0.5641667247,318.3284607,
0.5658333302,317.0452271,
0.5674999952,319.5662842,
0.5691667199,319.5565491,
0.5708333254,320.9614868,
0.5725000501,316.1678467,
0.5741666555,318.0304565,
0.5758333206,317.7430725,
0.5775000453,318.4981384,
0.5791666508,318.3663635,
0.5808333755,318.7810974,
0.5825000405,319.4445496,
0.584166646,318.2121887,
0.5858333707,319.2164001,
0.5874999762,318.0634155,
0.5891667008,318.7171021,
0.5908333659,318.388092,
0.5924999714,319.6598816,
0.5941666961,317.610321,
0.5958333611,318.4193115,
0.5975000262,318.7791138,
0.5991666913,317.5377197,
0.6008332968,319.6682129,
0.6025000215,318.7311096,
0.6041666865,319.4963684,
0.6058333516,320.0007019,
0.6075000167,317.5780334,
0.6091666818,317.8357239,
0.6108333468,318.4876099,
0.6125000119,317.1157227,
0.614166677,318.5379028,
0.6158333421,317.5161438,
0.6175000072,317.7642517,
0.6191666722,318.1933594,
0.6208333373,318.7940674,
0.622500062,315.099884,
0.6241666675,317.4350281,
0.6258333325,319.2900696,
0.6274999976,317.4733582,
0.6291666627,318.5696716,
0.6308333874,318.7642822,
0.6324999928,318.9801025,
0.6341666579,318.04599,
0.6358333826,318.616272,
0.6374999881,317.7854614,
0.6391667128,319.4737854,
0.6408333182,320.0239868,
0.6424999833,319.9200134,
0.644166708,317.6497498,
0.6458333135,318.2778625,
0.6475000381,316.3573608,
0.6491667032,318.0227966,
0.6508333087,319.0150757,
0.6525000334,318.1565552,
0.6541666389,317.4182739,
0.6558333635,317.4644775,
0.6575000286,315.4839172,
0.6591666341,317.8447266,
0.6608333588,319.327301,
0.6625000238,319.9599915,
0.6641666889,318.4399719,
0.665833354,318.0259399,
0.6674999595,317.2976379,
0.6691666842,315.8140869,
0.6708333492,319.9065552,
0.6725000143,317.7998352,
0.6741666794,317.9176941,
0.6758333445,318.9022827,
0.6775000095,317.3680725,
0.6791666746,316.1318665,
0.6808333993,319.6363831,
0.6825000048,317.0613098,
0.6841666698,318.7216797,
0.6858333349,317.3413696,
0.6875,318.241272,
0.6891667247,319.4236145,
0.6908333302,318.4630737,
0.6924999952,317.0810242,
0.6941667199,317.8660583,
0.6958333254,317.9873352,
0.6975000501,318.1101685,
0.6991666555,316.111969,
0.7008333206,318.8754578,
0.7025000453,318.4077148,
0.7041666508,318.3819275,
0.7058333755,320.2565308,
0.7075000405,317.6560669,
0.709166646,318.2347717,
0.7108333707,317.5422363,
0.7124999762,318.6618347,
0.7141667008,318.5541992,
0.7158333659,317.5654602,
0.7174999714,318.7530212,
0.7191666961,318.2311401,
0.7208333611,317.7209473,
0.7225000262,317.6630554,
0.7241666913,318.5114136,
0.7258332968,317.4431763,
0.7275000215,319.2174377,
0.7291666865,317.9830627,
0.7308333516,318.3392029,
0.7325000167,317.1283569,
0.7341666818,317.3501587,
0.7358333468,317.8717651,
0.7375000119,317.3495789,
0.739166677,319.008606,
0.7408333421,318.8421936,
0.7425000072,317.4951782,
0.7441666722,318.2599182,
0.7458333373,319.2119751,
0.747500062,319.0679626,
0.7491666675,319.1747742,
0.7508333325,319.9888306,
0.7524999976,317.6145325,
0.7541666627,319.0857544,
0.7558333874,317.6797485,
0.7574999928,317.737915,
0.7591666579,318.0177307,
0.7608333826,318.8356934,
0.7624999881,318.6640015,
0.7641667128,316.7365723,
0.7658333182,317.1787109,
0.7674999833,317.4181824,
0.769166708,318.0543823,
0.7708333135,316.0088806,
0.7725000381,318.0068665,
0.7741667032,318.4538574,
0.7758333087,317.961792,
0.7775000334,317.4809265,
0.7791666389,318.3384094,
0.7808333635,318.3546448,
0.7825000286,318.3409729,
0.7841666341,317.1879883,
0.7858333588,318.7325745,
0.7875000238,317.4261475,
0.7891666889,319.4680176,
0.790833354,316.2779236,
0.7924999595,318.1592102,
0.7941666842,317.7745972,
0.7958333492,319.3187866,
0.7975000143,316.2521057,
0.7991666794,318.8634338,
0.8008333445,317.0521545,
0.8025000095,318.0691528,
0.8041666746,317.5681458,
0.8058333993,318.2502441,
0.8075000048,318.4014282,
0.8091666698,317.5842896,
0.8108333349,318.8954468,
0.8125,318.7825012,
0.8141667247,319.4508057,
0.8158333302,317.4069519,
0.8174999952,318.2857666,
0.8191667199,319.5060425,
0.8208333254,318.2091064,
0.8225000501,317.3720093,
0.8241666555,318.3323364,
0.8258333206,320.2579956,
0.8275000453,318.3653259,
0.8291666508,316.6224976,
0.8308333755,315.9894104,
0.8325000405,315.9060669,
0.834166646,317.813446,
0.8358333707,317.4215393,
0.8374999762,319.5929871,
0.8391667008,319.1377869,
0.8408333659,318.4100342,
0.8424999714,318.8170166,
0.8441666961,318.9989319,
0.8458333611,316.4514465,
0.8475000262,317.6917114,
0.8491666913,318.1338196,
0.8508332968,318.9425354,
0.8525000215,317.5083618,
0.8541666865,317.3058777,
0.8558333516,315.7605286,
0.8575000167,317.3206787,
0.8591666818,318.2540283,
0.8608333468,319.2650146,
0.8625000119,318.235199,
0.864166677,318.8713989,
0.8658333421,318.0630493,
0.8675000072,317.928772,
0.8691666722,316.756073,
0.8708333373,318.1116333,
0.872500062,317.8193665,
0.8741666675,318.3626709,
0.8758333325,317.1661987,
0.8774999976,317.1760559,
0.8791666627,316.7909851,
0.8808333874,317.7816772,
0.8824999928,317.9353027,
0.8841666579,318.0730591,
0.8858333826,317.5009155,
0.8874999881,317.0444946,
0.8891667128,317.1317749,
0.8908333182,316.9372253,
0.8924999833,318.4697571,
0.894166708,319.3872681,
0.8958333135,316.6167603,
0.8975000381,318.1058044,
0.8991667032,318.2736206,
0.9008333087,316.9777222,
0.9025000334,317.7790833,
0.9041666389,317.1287231,
0.9058333635,319.1854248,
0.9075000286,318.2826538,
0.9091666341,316.4823303,
0.9108333588,316.9398193,
0.9125000238,316.6018677,
0.9141666889,317.9889832,
0.915833354,316.4564819,
0.9174999595,316.9151611,
0.9191666842,317.6010132,
0.9208333492,317.5950012,
0.9225000143,316.1308289,
0.9241666794,316.9257813,
0.9258333445,316.1437988,
0.9275000095,317.0273743,
0.9291666746,317.62677,
0.9308333993,316.9140625,
0.9325000048,317.3062744,
0.9341666698,319.6420288,
0.9358333349,317.8331909,
0.9375,318.1505127,
0.9391667247,316.7362671,
0.9408333302,318.5826416,
0.9424999952,318.3762817,
0.9441667199,317.0054932,
0.9458333254,315.3114624,
0.9475000501,317.3098145,
0.9491666555,318.1812744,
0.9508333206,319.0707703,
0.9525000453,316.8170776,
0.9541666508,317.7645264,
0.9558333755,317.7120361,
0.9575000405,317.1627502,
0.959166646,318.7640076,
0.9608333707,317.12323,
0.9624999762,318.5824585,
0.9641667008,317.6781311,
0.9658333659,318.1008911,
0.9674999714,317.6238098,
0.9691666961,314.9420471,
0.9708333611,317.8611145,
0.9725000262,319.275177,
0.9741666913,317.4662781,
0.9758332968,316.1720276,
0.9775000215,317.3647766,
0.9791666865,317.1333923,
0.9808333516,318.2568359,
0.9825000167,319.7806396,
0.9841666818,316.7746582,
0.9858333468,317.0484924,
0.9875000119,318.4795837,
0.989166677,317.756073,
0.9908333421,318.4437866,
0.9925000072,316.6720581,
0.9941666722,318.3623657,
0.9958333373,317.4317017,
0.997500062,318.0791321,
0.9991666675,316.3977051,
1.000833273,319.5678101,
1.002500057,317.3659363,
1.004166722,318.9844971,
1.005833387,315.7561646,
1.007500052,318.9768677,
1.009166598,318.6686401,
1.010833383,316.4155579,
1.012500048,316.1840515,
1.014166713,319.4228821,
1.015833378,318.4108887,
1.017500043,317.2105103,
1.019166708,316.2889099,
1.020833373,317.6509705,
1.022500038,318.7310181,
1.024166703,317.8379517,
1.025833368,319.6888123,
1.027500033,318.4807129,
1.029166698,317.0769958,
1.030833364,320.465271,
1.032500029,317.5698853,
1.034166694,318.0223694,
1.035833359,316.9260254,
1.037500024,318.00177,
1.039166689,319.0775757,
1.040833354,317.6132813,
1.042500019,317.6741638,
1.044166684,317.8772278,
1.045833349,319.206604,
1.047500014,317.0753784,
1.049166679,316.8127441,
1.050833344,316.7661438,
1.05250001,318.2467651,
1.054166675,317.9649658,
1.05583334,317.9963989,
1.057500005,320.3805237,
1.05916667,316.094574,
1.060833335,316.5203552,
1.0625,317.066803,
1.064166665,318.2677307,
1.06583333,319.0230103,
1.067499995,318.3068237,
1.06916666,319.7063599,
1.070833325,317.8710938,
1.07249999,316.4029846,
1.074166775,315.1164551,
1.07583344,315.5244141,
1.077499986,319.0171814,
1.079166651,319.0635681,
1.080833316,317.1144409,
1.0825001,316.8951416,
1.084166765,320.0488586,
1.085833311,317.2019958,
1.087499976,316.2945251,
1.089166641,315.9351196,
1.090833426,316.7069092,
1.092500091,319.7192993,
1.094166636,317.2695923,
1.095833302,316.3591614,
1.097499967,316.2433777,
1.099166751,318.0445862,
1.100833416,317.8195801,
1.102500081,316.4190369,
1.104166627,318.2094116,
1.105833292,315.874939,
1.107500076,318.9138184,
1.109166741,318.3893127,
1.110833406,316.7011108,
1.112499952,318.6568298,
1.114166617,319.0949707,
1.115833402,317.1664734,
1.117500067,318.9319763,
1.119166732,317.8374023,
1.120833278,318.1060791,
1.122499943,317.4598389,
1.124166727,316.2066345,
1.125833392,317.7335815,
1.127500057,317.9319458,
1.129166722,318.4450684,
1.130833268,318.1516418,
1.132500052,315.2750549,
1.134166718,318.1383057,
1.135833383,317.5204163,
1.137500048,316.7324524,
1.139166594,317.7471313,
1.140833378,318.4831238,
1.142500043,317.7658691,
1.144166708,317.5936279,
1.145833373,317.6413879,
1.147499919,316.7096863,
1.149166703,320.9352722,
1.150833368,318.012146,
1.152500033,316.855072,
1.154166698,316.8847961,
1.155833364,317.1217957,
1.157500029,319.97229,
1.159166694,317.5379028,
1.160833359,317.7937622,
1.162500024,316.8503113,
1.164166689,316.6274109,
1.165833354,318.5525818,
1.167500019,316.7012939,
1.169166684,316.3901978,
1.170833349,318.9520569,
1.172500014,317.0892334,
1.174166799,319.3698425,
1.175833344,317.4094543,
1.17750001,317.3415527,
1.179166675,316.4609375,
1.18083334,316.5213318,
1.182500124,317.0747375,
1.18416667,317.8190918,
1.185833335,318.2009277,
1.1875,318.9399109,
1.189166665,316.8164673,
1.190833449,317.8527527,
1.192499995,317.9194946,
1.19416666,319.0640564,
1.195833325,315.9388428,
1.19749999,318.7472839,
1.199166775,317.6370239,
1.20083344,317.4983215,
1.202499986,317.2520447,
1.204166651,318.2114258,
1.205833316,318.0811462,
1.2075001,316.2171326,
1.209166765,317.8670959,
1.210833311,318.1573792,
1.212499976,317.6615906,
1.214166641,318.0974731,
1.215833426,317.3370972,
1.217500091,316.7089539,
1.219166636,318.5838318,
1.220833302,316.5101013,
1.222499967,317.7585449,
1.224166751,317.5826416,
1.225833416,318.9475098,
1.227500081,317.3999634,
1.229166627,316.911438,
1.230833292,317.782135,
1.232500076,318.0657043,
1.234166741,318.3201294,
1.235833406,317.2608032,
1.237499952,317.9873657,
1.239166617,318.3254089,
1.240833402,315.6685486,
1.242500067,317.7777405,
1.244166732,316.5830994,
1.245833278,317.6478271,
1.247499943,316.4382019,
1.249166727,317.186554,
1.250833392,318.5318298,
1.252500057,319.8694458,
1.254166722,316.9178772,
1.255833268,317.7207642,
1.257500052,318.0494385,
1.259166718,319.0814514,
1.260833383,317.1376343,
1.262500048,318.427887,
1.264166594,317.1689758,
1.265833378,317.4451904,
1.267500043,316.5758057,
1.269166708,319.6801147,
1.270833373,316.9151611,
1.272499919,316.1517029,
1.274166703,317.1760254,
1.275833368,318.5441589,
1.277500033,318.8146667,
1.279166698,316.2937012,
1.280833364,319.0896606,
1.282500029,316.5402222,
1.284166694,317.5465698,
1.285833359,317.2778931,
1.287500024,316.1834717,
1.289166689,317.8446655,
1.290833354,316.8699341,
1.292500019,317.7485657,
1.294166684,316.7537842,
1.295833349,317.6090698,
1.297500014,317.3249512,
1.299166799,318.1460876,
1.300833344,317.1068726,
1.30250001,316.7154846,
1.304166675,317.2669373,
1.30583334,315.8652649,
1.307500124,317.0494995,
1.30916667,316.8913879,
1.310833335,318.348175,
1.3125,320.0694275,
1.314166665,315.6121521,
1.315833449,318.0033264,
1.317499995,319.0950317,
1.31916666,317.3358154,
1.320833325,317.0447083,
1.32249999,316.9058228,
1.324166775,317.9263306,
1.32583344,318.6576843,
1.327499986,318.1489563,
1.329166651,317.2880859,
1.330833316,316.7147827,
1.3325001,316.4336548,
1.334166765,318.1298523,
1.335833311,316.7122498,
1.337499976,316.8735352,
1.339166641,316.9290161,
1.340833426,318.7173157,
1.342500091,317.1006775,
1.344166636,318.1826172,
1.345833302,318.0987549,
1.347499967,317.0797729,
1.349166751,316.6806641,
1.350833416,316.7085266,
1.352500081,319.3867493,
1.354166627,317.192688,
1.355833292,318.6009827,
1.357500076,317.058197,
1.359166741,316.3008118,
1.360833406,317.4444885,
1.362499952,318.6252441,
1.364166617,317.955658,
1.365833402,318.9857788,
1.367500067,317.7386475,
1.369166732,318.6832581,
1.370833278,316.9104004,
1.372499943,317.6407471,
1.374166727,316.5666199,
1.375833392,317.0819702,
1.377500057,315.7000122,
1.379166722,319.7799072,
1.380833268,317.7513123,
1.382500052,318.3079529,
1.384166718,318.0653992,
1.385833383,317.5869751,
1.387500048,318.2294312,
1.389166594,316.1118774,
1.390833378,316.376709,
1.392500043,319.1695251,
1.394166708,318.874176,
1.395833373,319.0444641,
1.397499919,316.9101257,
1.399166703,317.8004456,
1.400833368,318.6303101,
1.402500033,318.3374023,
1.404166698,319.40448,
1.405833364,316.962616,
1.407500029,318.2921143,
1.409166694,317.3643188,
1.410833359,317.9838867,
1.412500024,318.980835,
1.414166689,317.7677917,
1.415833354,316.6570129,
1.417500019,317.9904785,
1.419166684,316.8706055,
1.420833349,318.5935974,
1.422500014,317.1672668,
1.424166799,318.5495605,
1.425833344,316.3165894,
1.42750001,317.2003784,
1.429166675,317.1481628,
1.43083334,317.0484314,
1.432500124,317.403656,
1.43416667,318.5446777,
1.435833335,317.8521423,
1.4375,316.3825684,
1.439166665,318.9797058,
1.440833449,317.1477051,
1.442499995,316.4205017,
1.44416666,317.9995728,
1.445833325,317.8266296,
1.44749999,317.5915833,
1.449166775,316.7234497,
1.45083344,315.4102173,
1.452499986,316.4978943,
1.454166651,318.2080688,
1.455833316,318.494873,
1.4575001,317.259552,
1.459166765,317.3978271,
1.460833311,318.4286804,
1.462499976,317.6929932,
1.464166641,318.1869812,
1.465833426,316.944397,
1.467500091,316.8430176,
1.469166636,318.4517822,
1.470833302,319.3349915,
1.472499967,317.7620239,
1.474166751,316.4319763,
1.475833416,317.6573792,
1.477500081,318.9122925,
1.479166627,319.0309143,
1.480833292,317.9851379,
1.482500076,318.6760864,
1.484166741,317.3469238,
1.485833406,317.5268555,
1.487499952,316.7045898,
1.489166617,315.801239,
1.490833402,316.5860291,
1.492500067,318.0788574,
1.494166732,316.9147034,
1.495833278,317.7026367,
1.497499943,318.1836853,
1.499166727,317.7206726,
1.500833392,317.534668,
1.502500057,316.9550171,
1.504166722,316.0426636,
1.505833268,317.0404968,
1.507500052,317.7961731,
1.509166718,317.1742859,
1.510833383,316.7280273,
1.512500048,289.8733826,
1.514166594,279.6465149,
1.515833378,276.3161011,
1.517500043,257.5065613,
1.519166708,252.5881805,
1.520833373,253.6057892,
1.522499919,298.857605,
1.524166703,298.3321533,
1.525833368,299.2257996,
1.527500033,297.3132629,
1.529166698,297.8920898,
1.530833364,296.9706116,
1.532500029,298.135498,
1.534166694,297.6997681,
1.535833359,299.3175049,
1.537500024,281.4943848,
1.539166689,250.0666351,
1.540833354,265.8157959,
1.542500019,305.8070984,
1.544166684,284.8725586,
1.545833349,291.1075134,
1.547500014,289.9506836,
1.549166799,269.5987549,
1.550833344,287.6584778,
1.55250001,291.1473083,
1.554166675,273.0879822,
1.55583334,271.6763611,
1.557500124,285.0522766,
1.55916667,273.6895447,
1.560833335,269.5704956,
1.5625,292.194397,
1.564166665,274.1404724,
1.565833449,288.0671082,
1.567499995,303.8435364,
1.56916666,275.0449524,
1.570833325,264.858551,
1.57249999,280.460022,
1.574166775,309.8858643,
1.57583344,309.7840576,
1.577499986,310.744812,
1.579166651,307.1929321,
1.580833316,307.8800049,
1.5825001,308.0007935,
1.584166765,309.2545166,
1.585833311,309.8691101,
1.587499976,308.4784546,
1.589166641,307.3974609,
1.590833426,308.3403625,
1.592500091,307.5661316,
1.594166636,306.8397827,
1.595833302,308.4569092,
1.597499967,309.1845703,
1.599166751,307.7247314,
1.600833416,307.0256958,
1.602500081,307.0163879,
1.604166627,306.8005371,
1.605833292,305.4663696,
1.607500076,306.3600159,
1.609166741,308.4181519,
1.610833406,306.6072083,
1.612499952,305.5303345,
1.614166617,305.8544006,
1.615833402,305.7090759,
1.617500067,306.2719421,
1.619166732,307.2908936,
1.620833278,305.9594421,
1.622499943,304.8231506,
1.624166727,305.3186035,
1.625833392,303.6638184,
1.627500057,305.3335571,
1.629166722,304.5607605,
1.630833268,304.8965759,
1.632500052,304.3388672,
1.634166718,303.3770447,
1.635833383,303.243042,
1.637500048,305.1263733,
1.639166594,304.600769,
1.640833378,303.3643799,
1.642500043,303.546875,
1.644166708,304.4214783,
1.645833373,304.1541443,
1.647499919,303.1781616,
1.649166703,303.4281311,
1.650833368,303.7093811,
1.652500033,302.6116333,
1.654166698,302.0129395,
1.655833364,301.6640625,
1.657500029,301.8820496,
1.659166694,302.5550232,
1.660833359,303.3205566,
1.662500024,302.6543579,
1.664166689,301.9523926,
1.665833354,300.0184326,
1.667500019,301.2461853,
1.669166684,300.9263306,
1.670833349,301.3579407,
1.672500014,301.5222778,
1.674166799,300.5220032,
1.675833344,300.0853882,
1.67750001,298.4564514,
1.679166675,301.6555481,
1.68083334,299.9645996,
1.682500124,300.4794617,
1.68416667,301.0127869,
1.685833335,299.6126404,
1.6875,300.3329773,
1.689166665,298.9984131,
1.690833449,300.0836182,
1.692499995,299.9598694,
1.69416666,298.0632935,
1.695833325,299.6897583,
1.69749999,299.8588867,
1.699166775,300.5241394,
1.70083344,298.6878662,
1.702499986,298.9808044,
1.704166651,299.5274963,
1.705833316,298.4066467,
1.7075001,298.8718872,
1.709166765,298.8466492,
1.710833311,299.3074036,
1.712499976,299.4434814,
1.714166641,297.422821,
1.715833426,296.0194397,
1.717500091,297.3293457,
1.719166636,296.4787903,
1.720833302,298.8052673,
1.722499967,298.6162415,
1.724166751,299.6355286,
1.725833416,297.0237732,
1.727500081,296.4671326,
1.729166627,298.4467773,
1.730833292,297.7723694,
1.732500076,296.8890686,
1.734166741,298.2332458,
1.735833406,296.2288208,
1.737499952,295.8918152,
1.739166617,294.499939,
1.740833402,298.3554993,
1.742500067,297.0818787,
1.744166732,296.2144165,
1.745833278,296.1167603,
1.747499943,294.5565796,
1.749166727,294.8785095,
1.750833392,296.1002502,
1.752500057,292.6626282,
1.754166722,296.6281433,
1.755833268,296.7835693,
1.757500052,296.7032166,
1.759166718,295.8658447,
1.760833383,293.9985657,
1.762500048,294.8836365,
1.764166594,293.95224,
1.765833378,293.2559509,
1.767500043,295.7513733,
1.769166708,296.2136841,
1.770833373,296.1170044,
1.772499919,294.782074,
1.774166703,292.1636047,
1.775833368,294.0838318,
1.777500033,291.8568726,
1.779166698,294.3919067,
1.780833364,294.3545837,
1.782500029,294.264679,
1.784166694,294.759552,
1.785833359,293.8234253,
1.787500024,293.4926758,
1.789166689,292.3153076,
1.790833354,292.9212341,
1.792500019,291.5295105,
1.794166684,293.9569092,
1.795833349,294.4527893,
1.797500014,292.5452881,
1.799166799,294.1628723,
1.800833344,291.8753662,
1.80250001,292.4284058,
1.804166675,292.324707,
1.80583334,292.7013245,
1.807500124,292.7140503,
1.80916667,292.3384705,
1.810833335,293.1752319,
1.8125,292.295105,
1.814166665,293.3636475,
1.815833449,293.0520325,
1.817499995,292.0624695,
1.81916666,292.4330444,
1.820833325,292.8336487,
1.82249999,291.2874146,
1.824166775,292.0467224,
1.82583344,291.9177551,
1.827499986,292.1818542,
1.829166651,291.7973633,
1.830833316,292.6026917,
1.8325001,290.5735168,
1.834166765,292.1677551,
1.835833311,291.1878052,
1.837499976,291.1040039,
1.839166641,291.708252,
1.840833426,293.8674927,
1.842500091,292.155426,
1.844166636,292.312439,
1.845833302,292.0047913,
1.847499967,291.2815552,
1.849166751,289.7425537,
1.850833416,290.1236877,
1.852500081,291.7415466,
1.854166627,292.3190613,
1.855833292,290.1236267,
1.857500076,290.4908447,
1.859166741,291.6845398,
1.860833406,289.6761169,
1.862499952,289.7977905,
1.864166617,290.221344,
1.865833402,291.0494385,
1.867500067,289.3746643,
1.869166732,287.9804688,
1.870833278,289.3548889,
1.872499943,288.913269,
1.874166727,287.5758667,
1.875833392,288.9071045,
1.877500057,290.1635437,
1.879166722,287.3391724,
1.880833268,289.586731,
1.882500052,287.968811,
1.884166718,290.4126282,
1.885833383,288.6325073,
1.887500048,288.8154297,
1.889166594,287.9481506,
1.890833378,288.8519287,
1.892500043,290.3540344,
1.894166708,288.6656189,
1.895833373,288.3049011,
1.897499919,288.5278625,
1.899166703,288.9925232,
1.900833368,287.9501953,
1.902500033,288.9888306,
1.904166698,289.2586365,
1.905833364,287.6447449,
1.907500029,288.7203674,
1.909166694,288.4590149,
1.910833359,287.6770325,
1.912500024,288.9714966,
1.914166689,286.9481506,
1.915833354,289.1039734,
1.917500019,288.1093445,
1.919166684,286.3737793,
1.920833349,287.6007385,
1.922500014,287.1844788,
1.924166799,286.9477234,
1.925833344,286.5717468,
1.92750001,287.9967346,
1.929166675,287.5760193,
1.93083334,286.6292114,
1.932500124,284.5647888,
1.93416667,285.6854858,
1.935833335,286.5128784,
1.9375,287.4862671,
1.939166665,285.9403992,
1.940833449,288.5545349,
1.942499995,287.5271606,
1.94416666,284.9969482,
1.945833325,285.7632751,
1.94749999,284.8442688,
1.949166775,286.1152344,
1.95083344,286.2298889,
1.952499986,286.7313232,
1.954166651,286.6734924,
1.955833316,285.0487976,
1.9575001,284.4497375,
1.959166765,283.9932251,
1.960833311,283.4718628,
1.962499976,283.8464355,
1.964166641,282.8687439,
1.965833426,284.9715271,
1.967500091,284.5437927,
1.969166636,285.0861816,
1.970833302,284.4398499,
1.972499967,285.3802795,
1.974166751,283.0621033,
1.975833416,284.1599426,
1.977500081,282.5233765,
1.979166627,285.1772766,
1.980833292,285.1120605,
1.982500076,283.5683289,
1.984166741,284.072998,
1.985833406,285.3938599,
1.987499952,284.1920166,
1.989166617,283.6131287,
1.990833402,283.7378235,
1.992500067,283.5559387,
1.994166732,282.7481689,
1.995833278,282.3734131,
1.997499943,284.4372559,
1.999166727,283.5422363,
2.000833273,284.5352783,
2.002500057,282.6349182,
2.004166603,283.6476746,
2.005833387,283.4163208,
2.007500172,283.5335999,
2.009166718,281.2554321,
2.010833263,284.6352539,
2.012500048,281.8991394,
2.014166594,282.5571899,
2.015833378,281.843811,
2.017500162,281.1659546,
2.019166708,281.3617554,
2.020833254,282.6380615,
2.022500038,283.0719299,
2.024166822,281.5675964,
2.025833368,281.7448425,
2.027499914,283.4550781,
2.029166698,283.5864563,
2.030833244,283.8398438,
2.032500029,281.5976563,
2.034166813,281.7061768,
2.035833359,280.7884521,
2.037499905,281.61203,
2.039166689,281.8130188,
2.040833473,281.7411194,
2.042500019,281.6923218,
2.044166803,279.967041,
2.045833349,281.8250122,
2.047499895,280.6196594,
2.049166679,280.4551086,
2.050833464,281.0309753,
2.05250001,281.0307312,
2.054166555,281.944397,
2.05583334,279.4580688,
2.057500124,282.1505127,
2.05916667,282.0237122,
2.060833454,281.597229,
2.0625,281.2108154,
2.064166546,281.8023987,
2.06583333,279.9470825,
2.067500114,281.5651855,
2.06916666,280.8450012,
2.070833445,279.4862061,
2.07249999,281.4510193,
2.074166775,281.115448,
2.075833321,279.9041138,
2.077500105,279.1508484,
2.079166651,280.7306824,
2.080833197,281.5818481,
2.082499981,279.3562927,
2.084166765,280.0093994,
2.085833311,282.039032,
2.087500095,279.0523376,
2.089166641,279.5389099,
2.090833426,279.680481,
2.092499971,280.6804199,
2.094166756,280.55896,
2.095833302,281.8171082,
2.097500086,279.8821716,
2.099166632,278.5478516,
2.100833416,281.9233398,
2.102499962,280.8135071,
2.104166746,279.4462585,
2.105833292,280.5802612,
2.107500076,279.4146118,
2.109166622,280.2207947,
2.110833406,278.4922791,
2.112499952,279.5644836,
2.114166737,278.5422363,
2.115833521,280.1305237,
2.117500067,279.7117004,
2.119166613,279.2156982,
2.120833397,280.8213196,
2.122499943,281.3310852,
2.124166727,279.4568787,
2.125833273,280.7477722,
2.127500057,278.6388245,
2.129166603,278.1261597,
2.130833387,279.3908691,
2.132500172,279.540863,
2.134166718,280.1712952,
2.135833502,280.3077393,
2.137500048,279.8082275,
2.139166832,278.6381226,
2.140833378,279.999054,
2.142500162,279.9508362,
2.144166708,279.513031,
2.145833254,279.961853,
2.147500038,280.5899963,
2.149166584,279.3855286,
2.150833368,278.8491821,
2.152500153,278.7810974,
2.154166698,278.8969727,
2.155833483,279.4462891,
2.157500029,278.5448303,
2.159166813,280.5119934,
2.160833597,278.1750488,
2.162499905,278.2072449,
2.164166689,278.3813782,
2.165833235,277.0695801,
2.167500019,280.0274658,
2.169166803,278.3015137,
2.170833349,278.5624084,
2.172500134,277.5323181,
2.174166679,277.9708557,
2.175833464,278.6225586,
2.177500248,278.4942627,
2.179166555,278.4925232,
2.18083334,279.177002,
2.182499886,280.9581909,
2.18416667,277.8382263,
2.185833454,278.9345398,
2.1875,278.1804504,
2.189166784,277.7084656,
2.19083333,276.5404663,
2.192500114,278.0380249,
2.194166899,277.0079651,
2.195833445,278.2861023,
2.19749999,278.7709351,
2.199166536,276.9578857,
2.200833321,277.6040649,
2.202500105,277.0763245,
2.204166651,277.9992371,
2.205833435,276.3969421,
2.207499981,277.9364319,
2.209166765,276.5610657,
2.210833549,277.0579834,
2.212500095,277.0696716,
2.21416688,277.6333008,
2.215833187,278.4434204,
2.217499971,277.9547119,
2.219166756,278.2501526,
2.220833302,277.3056946,
2.222500086,277.2881775,
2.224166632,277.4065552,
2.225833416,277.5094299,
2.2275002,278.4804993,
2.229166746,276.4726868,
2.23083353,277.3191833,
2.232499838,277.5947876,
2.234166622,276.5032959,
2.235833406,276.9942322,
2.237499952,277.4794006,
2.239166737,277.4390869,
2.240833282,276.4401855,
2.242500067,275.4649353,
2.244166851,276.0721436,
2.245833397,276.6175537,
2.247500181,276.1102295,
2.249166727,276.39328,
2.250833273,274.3739319,
2.252500057,276.3204651,
2.254166603,276.7925415,
2.255833387,277.0483398,
2.257499933,276.4936523,
2.259166718,275.6773071,
2.260833502,275.4966736,
2.262500048,275.3482971,
2.264166832,275.7599182,
2.265833378,275.285553,
2.267500162,276.3899536,
2.269166708,274.2850952,
2.270833254,275.7045288,
2.272500038,275.9078369,
2.274166584,277.4101257,
2.275833368,276.4458923,
2.277500153,274.9221802,
2.279166698,274.9750671,
2.280833483,277.1975098,
2.282500029,275.5235596,
2.284166813,276.178833,
2.285833597,275.3583069,
2.287499905,275.6305542,
2.289166689,274.8576965,
2.290833235,275.0162964,
2.292500019,275.5569153,
2.294166803,275.2124634,
2.295833349,275.9134827,
2.297500134,277.6051636,
2.299166679,274.2822876,
2.300833464,275.9013062,
2.302500248,274.9474487,
2.304166555,274.9491882,
2.30583334,274.7897644,
2.307499886,276.3352051,
2.30916667,274.9414978,
2.310833454,276.1726074,
2.3125,274.1346436,
2.314166784,275.1270447,
2.31583333,275.0591736,
2.317500114,274.0158386,
2.319166899,272.7626953,
2.320833445,275.780365,
2.32249999,272.1017151,
2.324166536,276.370697,
2.325833321,273.8523865,
2.327500105,275.2095642,
2.329166651,274.3669128,
2.330833435,274.1338501,
2.332499981,272.2744446,
2.334166765,273.8479004,
2.335833549,276.9007874,
2.337500095,274.271637,
2.33916688,275.2167969,
2.340833187,273.4512329,
2.342499971,274.3661194,
2.344166756,272.8030396,
2.345833302,275.4034729,
2.347500086,271.8062439,
2.349166632,273.191864,
2.350833416,273.7164612,
2.3525002,274.473938,
2.354166746,274.7963867,
2.35583353,273.8361511,
2.357499838,273.5585632,
2.359166622,273.5323792,
2.360833406,275.0046997,
2.362499952,272.9389648,
2.364166737,274.9816284,
2.365833282,273.4650879,
2.367500067,275.0440369,
2.369166851,274.1396484,
2.370833397,273.1878357,
2.372500181,274.1611328,
2.374166727,273.8204041,
2.375833273,274.2305603,
2.377500057,273.9544983,
2.379166603,271.6344299,
2.380833387,273.6743469,
2.382499933,273.0498657,
2.384166718,272.6882629,
2.385833502,272.2315063,
2.387500048,272.1987915,
2.389166832,272.928009,
2.390833378,273.5623169,
2.392500162,272.9855652,
2.394166708,273.7931824,
2.395833254,272.1530762,
2.397500038,273.6646118,
2.399166584,272.5818176,
2.400833368,271.6826172,
2.402500153,271.219635,
2.404166698,272.884613,
2.405833483,270.9680176,
2.407500029,272.2623596,
2.409166813,272.0645447,
2.410833597,272.7892151,
2.412499905,272.5025024,
2.414166689,271.8664856,
2.415833235,273.3938599,
2.417500019,270.7896729,
2.419166803,272.9475098,
2.420833349,273.4860229,
2.422500134,273.258728,
2.424166679,271.7567139,
2.425833464,271.3667908,
2.427500248,272.1522827,
2.429166555,271.1809998,
2.43083334,272.1577759,
2.432499886,271.1322327,
2.43416667,272.258667,
2.435833454,271.5919495,
2.4375,271.3434448,
2.439166784,272.1369019,
2.44083333,271.585907,
2.442500114,270.7442627,
2.444166899,271.8752441,
2.445833445,272.1171265,
2.44749999,272.8204041,
2.449166536,271.1237183,
2.450833321,272.4632263,
2.452500105,270.8346558,
2.454166651,271.688324,
2.455833435,272.019104,
2.457499981,269.4546814,
2.459166765,271.0384216,
2.460833549,270.6445007,
2.462500095,272.3082886,
2.46416688,272.0604248,
2.465833187,272.32547,
2.467499971,272.4061279,
2.469166756,271.4715576,
2.470833302,271.1558533,
2.472500086,271.034668,
2.474166632,270.1149292,
2.475833416,270.982666,
2.4775002,271.269104,
2.479166746,270.5627441,
2.48083353,269.9295044,
2.482499838,273.3413391,
2.484166622,271.0646667,
2.485833406,270.4972839,
2.487499952,271.5518188,
2.489166737,272.1433105,
2.490833282,271.3041992,
2.492500067,271.3139038,
2.494166851,272.6074829,
2.495833397,271.1968994,
2.497500181,270.8229065,
2.499166727,270.3929138,
2.500833273,269.8394165,
2.502500057,269.1092529,
2.504166603,268.1763306,
2.505833387,270.7826538,
2.507499933,272.1348877,
2.509166718,271.8248901,
2.510833502,269.4546814,
2.512500048,270.27948,
2.514166832,271.0926208,
2.515833378,270.5820923,
2.517500162,269.2563477,
2.519166708,269.7387085,
2.520833254,270.5673218,
2.522500038,269.203949,
2.524166584,271.9171753,
2.525833368,273.0053711,
2.527500153,269.6366882,
2.529166698,271.2171021,
2.530833483,269.9797974,
2.532500029,269.8765259,
2.534166813,269.5696411,
2.535833597,272.2695923,
2.537499905,270.2196655,
2.539166689,270.2471619,
2.540833235,269.6138916,
2.542500019,270.1282959,
2.544166803,271.9145203,
2.545833349,271.3669434,
2.547500134,269.8670959,
2.549166679,267.8468933,
2.550833464,267.4985046,
2.552500248,270.1034241,
2.554166555,269.5028076,
2.55583334,270.6873779,
2.557499886,268.7124939,
2.55916667,268.999054,
2.560833454,268.8942871,
2.5625,266.9859619,
2.564166784,269.7043762,
2.56583333,269.6235657,
2.567500114,269.7530823,
2.569166899,271.2822876,
2.570833445,269.2202454,
2.57249999,268.5222778,
2.574166536,269.6268311,
2.575833321,269.1653137,
2.577500105,268.5205383,
2.579166651,266.8475952,
2.580833435,269.3085632,
2.582499981,269.723053,
2.584166765,269.3208008,
2.585833549,267.151947,
2.587500095,269.369873,
2.58916688,269.2503967,
2.590833187,267.6003113,
2.592499971,268.1713867,
2.594166756,269.0580444,
2.595833302,268.7153931,
2.597500086,267.2326965,
2.599166632,267.7200317,
2.600833416,268.2090759,
2.6025002,267.6643677,
2.604166746,270.0941467,
2.60583353,268.7174072,
2.607499838,268.1682434,
2.609166622,269.5467529,
2.610833406,268.2673645,
2.612499952,268.7225342,
2.614166737,267.3558044,
2.615833282,268.4394531,
2.617500067,268.5366821,
2.619166851,268.6627502,
2.620833397,267.7358093,
2.622500181,268.4031677,
2.624166727,268.8952637,
2.625833273,269.1594543,
2.627500057,267.0500793,
2.629166603,269.3621216,
2.630833387,268.655426,
2.632499933,267.6879883,
2.634166718,267.348053,
2.635833502,268.0430908,
2.637500048,269.3547363,
2.639166832,268.3694763,
2.640833378,268.6818542,
2.642500162,269.6571045,
2.644166708,266.9526978,
2.645833254,268.4014893,
2.647500038,267.0723267,
2.649166584,267.2772827,
2.650833368,267.2626648,
2.652500153,269.1119385,
2.654166698,268.0136414,
2.655833483,268.3277588,
2.657500029,269.0469971,
2.659166813,267.8028259,
2.660833597,267.1091003,
2.662499905,267.4369812,
2.664166689,268.6136475,
2.665833235,269.8089294,
2.667500019,266.930481,
2.669166803,268.2331543,
2.670833349,266.8185425,
2.672500134,266.6864929,
2.674166679,268.4538574,
2.675833464,266.6620178,
2.677500248,267.0430908,
2.679166555,267.9486084,
2.68083334,267.9872437,
2.682499886,267.117218,
2.68416667,266.5285034,
2.685833454,268.907196,
2.6875,269.0534973,
2.689166784,267.8643188,
2.69083333,267.7865601,
2.692500114,267.3624573,
2.694166899,268.1880798,
2.695833445,266.058136,
2.69749999,268.8562622,
2.699166536,267.440918,
2.700833321,267.9012451,
2.702500105,267.0099487,
2.704166651,266.5844116,
2.705833435,266.285614,
2.707499981,267.7246704,
2.709166765,266.3771057,
2.710833549,267.3063049,
2.712500095,267.3657227,
2.71416688,267.9301453,
2.715833187,268.2648926,
2.717499971,264.7810364,
2.719166756,266.1283569,
2.720833302,266.9003601,
2.722500086,268.5523376,
2.724166632,266.579834,
2.725833416,267.6683655,
2.7275002,265.5075073,
2.729166746,266.0592346,
2.73083353,266.1546021,
2.732499838,266.2496643,
2.734166622,266.5710144,
2.735833406,267.0124817,
2.737499952,266.0463867,
2.739166737,266.4766846,
2.740833282,268.2889709,
2.742500067,265.9562988,
2.744166851,269.214447,
2.745833397,267.0086365,
2.747500181,266.2471313,
2.749166727,262.0848083,
2.750833273,266.820343,
2.752500057,266.7640381,
2.754166603,266.4776001,
2.755833387,267.2799377,
2.757499933,268.4682312,
2.759166718,266.6717834,
2.760833502,265.269165,
2.762500048,268.7043457,
2.764166832,267.0426636,
2.765833378,266.3799438,
2.767500162,267.3261414,
2.769166708,267.6848755,
2.770833254,267.6714783,
2.772500038,267.6680603,
2.774166584,265.8239136,
2.775833368,265.2059937,
2.777500153,266.9263,
2.779166698,266.9496765,
2.780833483,266.0644531,
2.782500029,265.591156,
2.784166813,265.5014343,
2.785833597,264.4711304,
2.787499905,265.4823303,
2.789166689,266.9420166,
2.790833235,265.983551,
2.792500019,265.7028198,
2.794166803,266.3415222,
2.795833349,264.7749939,
2.797500134,265.0210266,
2.799166679,265.7197571,
2.800833464,267.0259705,
2.802500248,264.2366028,
2.804166555,266.1072693,
2.80583334,265.2142334,
2.807499886,264.8813477,
2.80916667,265.5872498,
2.810833454,266.9083862,
2.8125,265.54953,
2.814166784,264.7917786,
2.81583333,264.2008057,
2.817500114,265.9542847,
2.819166899,264.2953491,
2.820833445,266.8205872,
2.82249999,263.8340149,
2.824166536,264.6976013,
2.825833321,263.6233215,
2.827500105,266.9760437,
2.829166651,265.4682617,
2.830833435,265.2225342,
2.832499981,265.45401,
2.834166765,267.8618469,
2.835833549,264.9987488,
2.837500095,264.4443054,
2.83916688,264.9006348,
2.840833187,266.3391113,
2.842499971,265.7250061,
2.844166756,263.5354919,
2.845833302,265.9572754,
2.847500086,265.3160706,
2.849166632,262.8708801,
2.850833416,265.1485596,
2.8525002,265.0769958,
2.854166746,265.3730164,
2.85583353,266.1412354,
2.857499838,264.1904602,
2.859166622,265.8435364,
2.860833406,263.76474,
2.862499952,266.2273865,
2.864166737,264.3065491,
2.865833282,265.2456665,
2.867500067,264.7340698,
2.869166851,264.809082,
2.870833397,264.6953735,
2.872500181,265.0958252,
2.874166727,264.694519,
2.875833273,265.834137,
2.877500057,263.8283997,
2.879166603,264.6101074,
2.880833387,265.6262817,
2.882499933,264.5363159,
2.884166718,264.6504822,
2.885833502,265.2098389,
2.887500048,265.1035156,
2.889166832,262.9275208,
2.890833378,264.5562134,
2.892500162,262.353363,
2.894166708,266.2546082,
2.895833254,265.3253174,
2.897500038,263.771698,
2.899166584,262.8011169,
2.900833368,264.896637,
2.902500153,264.8421021,
2.904166698,265.3310852,
2.905833483,264.9121704,
2.907500029,265.8284302,
2.909166813,265.523468,
2.910833597,264.1044617,
2.912499905,264.2426758,
2.914166689,265.5010681,
2.915833235,263.6853027,
2.917500019,265.4652405,
2.919166803,264.751709,
2.920833349,265.6372986,
2.922500134,264.543335,
2.924166679,261.8563232,
2.925833464,263.3052063,
2.927500248,262.5825195,
2.929166555,264.5944214,
2.93083334,263.0617371,
2.932499886,263.2041931,
2.93416667,263.7346191,
2.935833454,264.4341736,
2.9375,263.8449707,
2.939166784,263.6690369,
2.94083333,265.4482117,
2.942500114,264.077301,
2.944166899,264.5725708,
2.945833445,264.1208191,
2.94749999,262.9297791,
2.949166536,263.4108582,
2.950833321,262.9752197,
2.952500105,265.0087585,
2.954166651,263.2076416,
2.955833435,264.8462219,
2.957499981,263.7305298,
2.959166765,263.8907166,
2.960833549,263.9573669,
2.962500095,263.9331055,
2.96416688,263.4118347,
2.965833187,264.2839661,
2.967499971,263.6514587,
2.969166756,263.4980469,
2.970833302,263.273407,
2.972500086,262.9335022,
2.974166632,264.0690002,
2.975833416,264.329834,
2.9775002,262.2180481,
2.979166746,263.2229004,
2.98083353,264.7949219,
2.982499838,263.3070679,
2.984166622,264.7197876,
2.985833406,263.8053589,
2.987499952,262.6822205,
2.989166737,263.486969,
2.990833282,260.7611694,
2.992500067,263.3927612,
2.994166851,261.91745,
2.995833397,264.5930176,
2.997500181,263.1668701,
2.999166727,264.6373596,
3.000833273,263.8944702,
3.002500057,263.6229553,
3.004166603,263.8725891,
3.005833387,264.3208618,
3.007499933,263.2320862,
3.009166718,263.3300781,
3.010833502,263.697998,
3.012500048,263.1168518,
3.014166832,261.7281799,
3.015833378,265.0447998,
3.017500162,263.2451477,
3.019166708,262.624939,
3.020833254,262.4881897,
3.022500038,263.3908386,
3.024166584,262.8252258,
3.025833368,263.5549316,
3.027500153,263.4259338,
3.029166698,263.8616638,
3.030833483,261.6626892,
3.032500029,259.618866,
3.034166813,261.9456482,
3.035833597,263.0831604,
3.037499905,264.41922,
3.039166689,264.3343201,
3.040833235,261.552063,
3.042500019,262.6930847,
3.044166803,263.6673279,
3.045833349,262.3497925,
3.047500134,262.1500549,
3.049166679,264.3984375,
3.050833464,264.3978271,
3.052500248,261.8439636,
3.054166555,263.4085083,
3.05583334,262.7503967,
3.057499886,263.4068909,
3.05916667,264.1948853,
3.060833454,262.7313843,
3.0625,261.781311,
3.064166784,263.2266541,
3.06583333,262.3895874,
3.067500114,262.0681458,
3.069166899,262.5996704,
3.070833445,263.5184021,
3.07249999,261.2260132,
3.074166536,262.8987122,
3.075833321,260.7966309,
3.077500105,261.0595093,
3.079166651,262.8918152,
3.080833435,262.5180664,
3.082499981,261.8516235,
3.084166765,262.3650818,
3.085833549,263.2331848,
3.087500095,263.0996094,
3.08916688,260.8937378,
3.090833187,262.8501892,
3.092499971,264.1112671,
3.094166756,262.4421692,
3.095833302,263.243988,
3.097500086,263.1809998,
3.099166632,261.9494019,
3.100833416,261.9520874,
3.1025002,261.3000793,
3.104166746,263.4713745,
3.10583353,261.5076599,
3.107499838,261.6122131,
3.109166622,261.870636,
3.110833406,260.5679626,
3.112499952,263.1382446,
3.114166737,263.4781189,
3.115833282,260.2041016,
3.117500067,261.1852417,
3.119166851,261.4049988,
3.120833397,263.7619019,
3.122500181,262.7426147,
3.124166727,262.5860291,
3.125833273,261.9560547,
3.127500057,262.8291626,
3.129166603,261.359375,
3.130833387,261.4593201,
3.132499933,260.9898376,
3.134166718,261.6975708,
3.135833502,262.9346619,
3.137500048,260.9776611,
3.139166832,261.734375,
3.140833378,261.9465027,
3.142500162,262.5110779,
3.144166708,261.6927185,
3.145833254,260.9768677,
3.147500038,261.7411804,
3.149166584,261.6141052,
3.150833368,261.36203,
3.152500153,262.8783875,
3.154166698,261.2107544,
3.155833483,260.5553284,
3.157500029,262.2256775,
3.159166813,261.0305176,
3.160833597,261.2698669,
3.162499905,261.5261841,
3.164166689,260.8783569,
3.165833235,262.8930359,
3.167500019,261.2505798,
3.169166803,261.5949402,
3.170833349,261.8539734,
3.172500134,261.254364,
3.174166679,262.4554749,
3.175833464,261.1370239,
3.177500248,261.1372681,
3.179166555,262.6045227,
3.18083334,260.8772583,
3.182499886,260.2974854,
3.18416667,261.6088257,
3.185833454,260.1739197,
3.1875,260.6174316,
3.189166784,261.3772278,
3.19083333,260.3406677,
3.192500114,261.2948608,
3.194166899,261.1886292,
3.195833445,261.4884338,
3.19749999,261.1071777,
3.199166536,261.1192017,
3.200833321,261.4950867,
3.202500105,260.6080933,
3.204166651,260.4788818,
3.205833435,261.9189148,
3.207499981,261.2078857,
3.209166765,262.5491943,
3.210833549,261.851532,
3.212500095,261.7651062,
3.21416688,261.8117371,
3.215833187,261.4555664,
3.217499971,262.4342651,
3.219166756,261.0561523,
3.220833302,261.8855896,
3.222500086,260.1477356,
3.224166632,260.3638,
3.225833416,261.5610046,
3.2275002,262.2670898,
3.229166746,260.6929932,
3.23083353,260.4649963,
3.232499838,259.4240723,
3.234166622,260.261322,
3.235833406,260.5736389,
3.237499952,259.7202148,
3.239166737,262.3645935,
3.240833282,261.7281494,
3.242500067,259.7297363,
3.244166851,261.6867371,
3.245833397,261.1988831,
3.247500181,260.7550354,
3.249166727,260.0129395,
3.250833273,259.0046997,
3.252500057,259.7815552,
3.254166603,260.1598511,
3.255833387,260.2960205,
3.257499933,259.3479614,
3.259166718,259.8681335,
3.260833502,261.5862122,
3.262500048,260.969635,
3.264166832,261.1741028,
3.265833378,260.717804,
3.267500162,260.7522583,
3.269166708,260.7414551,
3.270833254,261.744873,
3.272500038,260.3415527,
3.274166584,258.3395691,
3.275833368,260.003479,
3.277500153,259.6523132,
3.279166698,262.0295105,
3.280833483,261.2842407,
3.282500029,260.9655151,
3.284166813,260.7389526,
3.285833597,260.7677002,
3.287499905,260.8212585,
3.289166689,261.4532776,
3.290833235,259.0683289,
3.292500019,259.2921753,
3.294166803,260.0783081,
3.295833349,259.7785645,
3.297500134,260.2265625,
3.299166679,258.458374,
3.300833464,258.757019,
3.302500248,259.5968018,
3.304166555,260.2911682,
3.30583334,258.407196,
3.307499886,260.5900269,
3.30916667,260.5931091,
3.310833454,260.3020935,
3.3125,259.9857483,
3.314166784,261.8978271,
3.31583333,261.4038391,
3.317500114,260.6013184,
3.319166899,259.8932495,
3.320833445,258.0667725,
3.32249999,260.5068359,
3.324166536,260.5966187,
3.325833321,260.4884949,
3.327500105,262.6287842,
3.329166651,261.3469238,
3.330833435,261.7181702,
3.332499981,258.7926025,
3.334166765,261.1108704,
3.335833549,260.5550232,
3.337500095,259.790741,
3.33916688,259.1413574,
3.340833187,260.346405,
3.342499971,259.2747192,
3.344166756,259.4607544,
3.345833302,259.3611145,
3.347500086,260.1219482,
3.349166632,260.1300964,
3.350833416,259.3613281,
3.3525002,259.2467346,
3.354166746,258.5881348,
3.35583353,260.7375183,
3.357499838,259.625946,
3.359166622,260.4963379,
3.360833406,259.3117371,
3.362499952,260.2786865,
3.364166737,260.3088379,
3.365833282,258.5886536,
3.367500067,260.1278381,
3.369166851,260.4582214,
3.370833397,259.1943054,
3.372500181,260.3687134,
3.374166727,259.9639282,
3.375833273,258.4321899,
3.377500057,260.1647644,
3.379166603,260.6380005,
3.380833387,260.5718384,
3.382499933,258.4515381,
3.384166718,258.2407837,
3.385833502,259.5804138,
3.387500048,259.2622681,
3.389166832,259.5760803,
3.390833378,258.9033508,
3.392500162,259.11026,
3.394166708,260.8928833,
3.395833254,260.9162292,
3.397500038,258.8181458,
3.399166584,257.6773071,
3.400833368,258.9465637,
3.402500153,258.7635193,
3.404166698,260.8914185,
3.405833483,258.6072083,
3.407500029,259.7822876,
3.409166813,259.6426086,
3.410833597,256.7769165,
3.412499905,259.8356628,
3.414166689,261.1541443,
3.415833235,258.7717896,
3.417500019,259.6673584,
3.419166803,257.7524414,
3.420833349,258.7226257,
3.422500134,259.1689148,
3.424166679,259.1695862,
3.425833464,258.0426025,
3.427500248,256.9151306,
3.429166555,258.0375061,
3.43083334,257.9177856,
3.432499886,258.7059021,
3.43416667,258.4967651,
3.435833454,258.9253235,
3.4375,259.9635925,
3.439166784,260.719696,
3.44083333,259.4046631,
3.442500114,259.2562561,
3.444166899,260.0779724,
3.445833445,259.5390015,
3.44749999,258.7072144,
3.449166536,259.7134399,
3.450833321,259.3526001,
3.452500105,261.633728,
3.454166651,258.7201538,
3.455833435,258.1495667,
3.457499981,259.827301,
3.459166765,259.9257507,
3.460833549,258.7762146,
3.462500095,257.8848267,
3.46416688,260.0955811,
3.465833187,258.3611755,
3.467499971,259.1483765,
3.469166756,260.1461182,
3.470833302,257.6982727,
3.472500086,260.1874695,
3.474166632,259.3648682,
3.475833416,259.1461792,
3.4775002,260.4707031,
3.479166746,259.1640625,
3.48083353,258.529541,
3.482499838,259.9403076,
3.484166622,258.1841125,
3.485833406,258.8709412,
3.487499952,258.9734192,
3.489166737,259.2479858,
3.490833282,259.4562988,
3.492500067,257.6630249,
3.494166851,259.5262756,
3.495833397,260.375061,
3.497500181,259.0163574,
3.499166727,257.734314,
3.500833273,259.4164124,
3.502500057,258.5921936,
3.504166603,258.3394775,
3.505833387,257.897644,
3.507499933,259.7759094,
3.509166718,259.7931213,
3.510833502,257.6133118,
3.512500048,259.2141724,
3.514166832,258.2805786,
3.515833378,258.3586426,
3.517500162,257.9738464,
3.519166708,259.2722473,
3.520833254,257.2650452,
3.522500038,257.5074768,
3.524166584,258.8295288,
3.525833368,258.1966553,
3.527500153,257.8205261,
3.529166698,259.6768494,
3.530833483,261.0431824,
3.532500029,257.5571594,
3.534166813,256.9760132,
3.535833597,258.4743042,
3.537499905,258.008728,
3.539166689,256.2578735,
3.540833235,258.6112366,
3.542500019,258.9745483,
3.544166803,255.9262238,
3.545833349,258.7196045,
3.547500134,258.0774536,
3.549166679,256.4003906,
3.550833464,257.504303,
3.552500248,259.2377319,
3.554166555,258.0562439,
3.55583334,257.7460022,
3.557499886,257.7632446,
3.55916667,256.5253601,
3.560833454,258.2156067,
3.5625,257.9580383,
3.564166784,257.4610596,
3.56583333,260.2884216,
3.567500114,258.0779419,
3.569166899,257.0557861,
3.570833445,258.0290527,
3.57249999,258.5394897,
3.574166536,259.2607727,
3.575833321,257.5841064,
3.577500105,256.6717224,
3.579166651,258.2111206,
3.580833435,258.8294678,
3.582499981,257.7038879,
3.584166765,257.3026428,
3.585833549,258.8026428,
3.587500095,257.3821106,
3.58916688,257.4501343,
3.590833187,257.0565491,
3.592499971,258.0690002,
3.594166756,258.1644897,
3.595833302,258.3261414,
3.597500086,258.1294556,
3.599166632,258.9328918,
3.600833416,256.6723328,
3.6025002,258.0450745,
3.604166746,256.4541626,
3.60583353,257.8555908,
3.607499838,257.4588928,
3.609166622,257.9957581,
3.610833406,259.1255798,
3.612499952,256.3822327,
3.614166737,257.2063293,
3.615833282,257.3383179,
3.617500067,258.6660461,
3.619166851,257.0758667,
3.620833397,256.8032532,
3.622500181,258.8391113,
3.624166727,257.3590393,
3.625833273,257.746521,
3.627500057,259.3888855,
3.629166603,257.3459778,
3.630833387,257.5676575,
3.632499933,256.9784851,
3.634166718,257.0122986,
3.635833502,256.922699,
3.637500048,256.4530945,
3.639166832,258.7777405,
3.640833378,256.859314,
3.642500162,259.0327148,
3.644166708,257.1831665,
3.645833254,256.3897095,
3.647500038,258.5499268,
3.649166584,255.9273529,
3.650833368,257.2417297,
3.652500153,258.6949768,
3.654166698,257.9165039,
3.655833483,257.4582214,
3.657500029,258.2644653,
3.659166813,257.3800659,
3.660833597,257.6831055,
3.662499905,257.8965149,
3.664166689,257.0592041,
3.665833235,258.1130066,
3.667500019,257.2940979,
3.669166803,256.2414246,
3.670833349,256.6203308,
3.672500134,257.5302429,
3.674166679,258.3865662,
3.675833464,257.3144531,
3.677500248,257.7415771,
3.679166555,260.4009399,
3.68083334,257.2120667,
3.682499886,255.0357056,
3.68416667,258.3353271,
3.685833454,257.3130493,
3.6875,256.0432434,
3.689166784,258.1772461,
3.69083333,256.7616882,
3.692500114,255.698349,
3.694166899,258.1292114,
3.695833445,256.5171204,
3.69749999,258.4064636,
3.699166536,256.6950684,
3.700833321,257.3482971,
3.702500105,256.59198,
3.704166651,257.034729,
3.705833435,256.6239319,
3.707499981,257.1446838,
3.709166765,257.1200867,
3.710833549,257.1687317,
3.712500095,256.2032166,
3.71416688,257.1431885,
3.715833187,257.5769043,
3.717499971,256.6542053,
3.719166756,257.3074341,
3.720833302,258.0517273,
3.722500086,257.2236633,
3.724166632,257.3440857,
3.725833416,256.585144,
3.7275002,257.2698059,
3.729166746,256.2702637,
3.73083353,257.4534607,
3.732499838,256.4034729,
3.734166622,256.0291138,
3.735833406,256.7628174,
3.737499952,257.4725952,
3.739166737,257.8449097,
3.740833282,256.7068176,
3.742500067,257.0020142,
3.744166851,257.0656738,
3.745833397,256.2121887,
3.747500181,255.0127258,
3.749166727,256.3268127,
3.750833273,257.25354,
3.752500057,255.3058319,
3.754166603,256.8540039,
3.755833387,258.7871704,
3.757499933,256.0800781,
3.759166718,257.1403503,
3.760833502,257.3013916,
3.762500048,256.8621826,
3.764166832,257.8992004,
3.765833378,255.8771057,
3.767500162,256.8861694,
3.769166708,257.7075195,
3.770833254,255.8531189,
3.772500038,257.2654419,
3.774166584,255.2862701,
3.775833368,256.8231506,
3.777500153,257.1410217,
3.779166698,258.0142822,
3.780833483,257.0758057,
3.782500029,257.6322327,
3.784166813,255.4637451,
3.785833597,255.5649261,
3.787499905,256.4263916,
3.789166689,255.7662964,
3.790833235,255.0536957,
3.792500019,255.700058,
3.794166803,257.5769958,
3.795833349,258.0475159,
3.797500134,256.5131226,
3.799166679,255.2818909,
3.800833464,257.1980591,
3.802500248,256.5814209,
3.804166555,256.4136963,
3.80583334,255.4368896,
3.807499886,255.3272552,
3.80916667,255.8427124,
3.810833454,256.6364441,
3.8125,255.7418976,
3.814166784,255.5388489,
3.81583333,257.2364807,
3.817500114,254.8589478,
3.819166899,258.7386169,
3.820833445,255.6852112,
3.82249999,255.0948792,
3.824166536,256.5581055,
3.825833321,256.7886658,
3.827500105,255.8724518,
3.829166651,256.1115112,
3.830833435,257.3823853,
3.832499981,256.1102295,
3.834166765,259.032135,
3.835833549,254.6362305,
3.837500095,256.2236023,
3.83916688,255.9386139,
3.840833187,256.9859314,
3.842499971,255.9210663,
3.844166756,256.3916321,
3.845833302,257.9088745,
3.847500086,255.8599701,
3.849166632,255.9944153,
3.850833416,255.483902,
3.8525002,255.6994324,
3.854166746,256.8156738,
3.85583353,255.5198364,
3.857499838,255.9534912,
3.859166622,256.7628479,
3.860833406,257.5421143,
3.862499952,256.7489624,
3.864166737,256.3274536,
3.865833282,256.0408936,
3.867500067,255.6796112,
3.869166851,256.2112122,
3.870833397,257.3095093,
3.872500181,257.5493164,
3.874166727,256.8190613,
3.875833273,256.168335,
3.877500057,254.3309021,
3.879166603,255.8607483,
3.880833387,256.6350098,
3.882499933,254.31633,
3.884166718,255.8270416,
3.885833502,256.6074524,
3.887500048,255.9866028,
3.889166832,254.6134338,
3.890833378,255.9526825,
3.892500162,257.0306091,
3.894166708,253.8641968,
3.895833254,252.8565826,
3.897500038,256.3336487,
3.899166584,256.219574,
3.900833368,255.7916412,
3.902500153,257.7061462,
3.904166698,255.5061035,
3.905833483,256.2766724,
3.907500029,256.7205505,
3.909166813,254.7970428,
3.910833597,256.4170227,
3.912499905,256.8763428,
3.914166689,257.2893982,
3.915833235,255.5021057,
3.917500019,255.1764526,
3.919166803,254.3764038,
3.920833349,256.3223267,
3.922500134,255.0922089,
3.924166679,255.6232758,
3.925833464,255.0653839,
3.927500248,255.6660156,
3.929166555,256.6114197,
3.93083334,254.5806427,
3.932499886,255.6139832,
3.93416667,255.4751282,
3.935833454,256.2044983,
3.9375,255.8119354,
3.939166784,256.4546204,
3.94083333,255.1981201,
3.942500114,256.0091858,
3.944166899,256.8374939,
3.945833445,256.0253296,
3.94749999,254.9841156,
3.949166536,255.0894623,
3.950833321,254.8118591,
3.952500105,255.2522125,
3.954166651,255.9235382,
3.955833435,255.6655731,
3.957499981,254.6458893,
3.959166765,256.9432678,
3.960833549,254.0148163,
3.962500095,253.4337006,
3.96416688,255.0890198,
3.965833187,255.1699829,
3.967499971,255.8255768,
3.969166756,256.0143738,
3.970833302,255.0881195,
3.972500086,255.1519318,
3.974166632,254.9815216,
3.975833416,255.8192596,
3.9775002,254.5375214,
3.979166746,256.6469116,
3.98083353,254.5084076,
3.982499838,255.9963989,
3.984166622,256.1072388,
3.985833406,255.9531097,
3.987499952,254.5787964,
3.989166737,255.6092377,
3.990833282,255.962616,
3.992500067,253.7297974,
3.994166851,254.7569275,
3.995833397,255.8654175,
3.997500181,257.2521362,
3.999166727,255.4007111,
4.000833511,254.6643372,
4.002500057,255.851593,
4.004166603,253.7601318,
4.005833626,256.8223572,
4.007500172,254.8957825,
4.009166718,254.8362579,
4.010833263,256.055481,
4.012499809,256.7176208,
4.014166832,254.9925079,
4.015833378,255.3620911,
4.017499924,254.4674225,
4.019166946,256.8357849,
4.020833492,255.2731018,
4.022500038,256.0615845,
4.024166584,256.0491028,
4.025833607,256.3623657,
4.027500153,256.934967,
4.029166698,254.7115021,
4.030833244,254.8278809,
4.03249979,254.8146515,
4.034166813,255.673233,
4.035833359,254.9706421,
4.037499905,254.1329498,
4.039166927,256.0843506,
4.040833473,255.4152679,
4.042500019,255.5527344,
4.044167042,253.3361359,
4.045833111,254.9797668,
4.047500134,256.4380493,
4.049166679,256.7038574,
4.050833225,254.0149078,
4.052500248,255.2682495,
4.054166794,257.1634827,
4.05583334,254.6282043,
4.057499886,255.5426025,
4.059166908,254.8404694,
4.060833454,255.8929901,
4.0625,255.0929718,
4.064166546,254.5206604,
4.065833092,256.1102905,
4.067500114,253.5468597,
4.06916666,254.6941376,
4.070833206,254.5136261,
4.072500229,253.4303589,
4.074166775,254.9491882,
4.075833321,253.3153839,
4.077500343,256.0831909,
4.079166889,254.6923523,
4.080833435,253.9475861,
4.082499981,255.2867279,
4.084166527,255.0141144,
4.085833549,255.2544708,
4.087500095,256.6972656,
4.089166641,256.4633484,
4.090833187,255.9074402,
4.09250021,254.0532379,
4.094166756,254.5583496,
4.095833302,254.0521393,
4.097500324,256.2333679,
4.099166393,255.4903564,
4.100833416,254.6040344,
4.102499962,253.6757813,
4.104166508,255.7897339,
4.10583353,255.2846375,
4.107500076,254.0104065,
4.109166622,254.1880646,
4.110833645,254.8226166,
4.112500191,254.2672119,
4.114166737,256.1123962,
4.115833282,255.1077271,
4.117499828,255.3720245,
4.119166851,254.9642639,
4.120833397,252.8744965,
4.122499943,253.7505035,
4.124166489,254.0743408,
4.125833511,254.9088593,
4.127500057,253.7012024,
4.129166603,254.1846313,
4.130833626,255.916687,
4.132500172,255.9033661,
4.134166718,254.5513458,
4.135833263,255.424118,
4.137499809,254.907486,
4.139166832,256.1755066,
4.140833378,255.2368317,
4.142499924,256.7480469,
4.144166946,254.4650116,
4.145833492,255.3738708,
4.147500038,254.5822906,
4.149166584,254.8347473,
4.150833607,253.8862,
4.152500153,255.7953033,
4.154166698,253.804184,
4.155833244,253.0099792,
4.15749979,255.5063324,
4.159166813,255.1776428,
4.160833359,252.9302521,
4.162499905,255.3012695,
4.164166927,252.8048096,
4.165833473,254.1175842,
4.167500019,254.3585358,
4.169167042,254.6949921,
4.170833111,254.1442871,
4.172500134,256.0465088,
4.174166679,254.6453705,
4.175833225,253.4634705,
4.177500248,253.5131226,
4.179166794,254.5205688,
4.18083334,253.1262054,
4.182499886,254.4077911,
4.184166908,254.715271,
4.185833454,254.4159851,
4.1875,254.3115845,
4.189166546,253.6186829,
4.190833092,252.6266632,
4.192500114,255.2444,
4.19416666,254.7192841,
4.195833206,253.9080658,
4.197500229,253.0609894,
4.199166775,253.1223602,
4.200833321,253.9364624,
4.202500343,254.5988617,
4.204166889,254.6183472,
4.205833435,254.7639313,
4.207499981,253.5436401,
4.209166527,253.1865234,
4.210833549,255.1032562,
4.212500095,254.1961975,
4.214166641,253.9573975,
4.215833187,252.552002,
4.21750021,253.9705048,
4.219166756,254.2480774,
4.220833302,253.5760651,
4.222500324,253.8571625,
4.224166393,253.0770569,
4.225833416,255.16185,
4.227499962,254.3309937,
4.229166508,250.8382874,
4.23083353,254.8866272,
4.232500076,255.3993988,
4.234166622,253.2859802,
4.235833645,253.5746765,
4.237500191,255.2126923,
4.239166737,254.8451691,
4.240833282,255.8879547,
4.242499828,253.3612213,
4.244166851,253.3747253,
4.245833397,253.8698273,
4.247499943,254.7444153,
4.249166489,254.436676,
4.250833511,254.2570801,
4.252500057,253.387146,
4.254166603,251.6763153,
4.255833626,254.456192,
4.257500172,256.4016113,
4.259166718,254.5335846,
4.260833263,252.3724976,
4.262499809,254.7066498,
4.264166832,254.1582031,
4.265833378,254.513504,
4.267500401,254.9872742,
4.26916647,254.2493896,
4.270833492,251.9109192,
4.272500038,254.6949615,
4.274167061,254.9207153,
4.275833607,253.782547,
4.277499676,255.7343292,
4.279166698,255.2729187,
4.280833244,253.4094696,
4.282500267,253.3687592,
4.284166813,253.7586365,
4.285833359,253.2266388,
4.287499905,252.3429718,
4.289166927,253.8151703,
4.290833473,253.7648315,
4.292500496,253.1098175,
4.294166565,253.4094086,
4.295833111,254.5809479,
4.297500134,253.5678406,
4.299166679,253.8074188,
4.300833702,253.2437134,
4.302499771,253.214035,
4.304166794,253.7244263,
4.30583334,252.6440887,
4.307500362,256.7886963,
4.309166908,254.4328918,
4.310833454,252.7311707,
4.3125,254.615097,
4.314166546,252.5382385,
4.315833569,253.1229248,
4.317500114,253.3197174,
4.31916666,254.1125183,
4.320833206,253.9633179,
4.322500229,253.3210144,
4.324166775,253.2881775,
4.325833797,253.8269501,
4.327499866,254.2329712,
4.329166889,253.0592957,
4.330833435,252.4629211,
4.332499981,253.9210052,
4.334167004,253.5553284,
4.335833073,253.0702972,
4.337500095,252.8652191,
4.339166641,252.9105225,
4.340833664,253.4181213,
4.34250021,253.1538544,
4.344166756,255.5174561,
4.345833302,253.6138916,
4.347500324,252.9058685,
4.34916687,254.2975616,
4.350833416,253.813324,
4.352499962,252.8652496,
4.354166508,254.1665497,
4.35583353,253.6098633,
4.357500076,252.8167114,
4.359167099,252.075943,
4.360833168,252.6130676,
4.362500191,252.8837891,
4.364166737,252.2915649,
4.365833759,254.2294922,
4.367500305,252.907074,
4.369166374,251.8316803,
4.370833397,254.165329,
4.372499943,252.7385101,
4.374166965,254.4958954,
4.375833511,252.6459045,
4.377500057,253.408844,
4.379166603,251.7715149,
4.380833626,252.8284454,
4.382500172,254.5612183,
4.384167194,252.735611,
4.385833263,252.9259033,
4.387499809,253.3256683,
4.389166832,252.9552307,
4.390833378,253.0248718,
4.392500401,250.9963837,
4.39416647,253.4650574,
4.395833492,252.8317261,
4.397500038,252.4001617,
4.399167061,252.2383575,
4.400833607,253.2270813,
4.402499676,253.6723022,
4.404166698,252.7971802,
4.405833244,253.7836456,
4.407500267,253.094162,
4.409166813,253.532196,
4.410833359,253.2181091,
4.412499905,254.0625916,
4.414166927,254.5495911,
4.415833473,253.4261017,
4.417500496,252.6467133,
4.419166565,253.094223,
4.420833111,252.1644287,
4.422500134,252.644516,
4.424166679,253.5823059,
4.425833702,252.5617218,
4.427499771,254.0769043,
4.429166794,253.8121948,
4.43083334,252.4415283,
4.432500362,255.0697327,
4.434166908,253.2223511,
4.435833454,253.2976837,
4.4375,253.0517883,
4.439166546,252.837204,
4.440833569,254.0015259,
4.442500114,254.1081085,
4.44416666,253.7900543,
4.445833206,254.0039063,
4.447500229,253.8601227,
4.449166775,253.0677948,
4.450833797,253.6356201,
4.452499866,252.6536255,
4.454166889,253.7052002,
4.455833435,253.2050018,
4.457499981,254.2406006,
4.459167004,253.6620789,
4.460833073,254.8666229,
4.462500095,252.6035919,
4.464166641,253.2859802,
4.465833664,253.0830536,
4.46750021,252.5521851,
4.469166756,252.0344543,
4.470833302,254.2662354,
4.472500324,254.0573425,
4.47416687,252.9612732,
4.475833416,253.3077545,
4.477499962,251.0055847,
4.479166508,252.8161469,
4.48083353,252.9768066,
4.482500076,254.1291962,
4.484167099,252.7239075,
4.485833168,250.9045258,
4.487500191,253.2097626,
4.489166737,250.9301605,
4.490833759,251.7763977,
4.492500305,252.0120087,
4.494166374,251.9772644,
4.495833397,253.7606049,
4.497499943,252.4358368,
4.499166965,251.2244873,
4.500833511,252.6350555,
4.502500057,253.060318,
4.504166603,253.4710693,
4.505833626,251.9556885,
4.507500172,253.7415009,
4.509167194,251.8722992,
4.510833263,252.6287384,
4.512499809,252.1840668,
4.514166832,253.413559,
4.515833378,253.1652527,
4.517500401,251.996582,
4.51916647,253.6757813,
4.520833492,252.8301239,
4.522500038,251.4814453,
4.524167061,253.3016205,
4.525833607,252.6024323,
4.527499676,251.4231567,
4.529166698,251.9523468,
4.530833244,254.740448,
4.532500267,253.2094116,
4.534166813,252.042923,
4.535833359,252.4774017,
4.537499905,252.6496277,
4.539166927,254.6875458,
4.540833473,252.1556854,
4.542500496,252.9661713,
4.544166565,255.1819611,
4.545833111,251.5904541,
4.547500134,253.21138,
4.549166679,253.0183258,
4.550833702,251.975235,
4.552499771,253.5532684,
4.554166794,252.6743774,
4.55583334,254.0233154,
4.557500362,253.112915,
4.559166908,252.0493317,
4.560833454,252.9056091,
4.5625,252.9263763,
4.564166546,252.6323547,
4.565833569,251.567276,
4.567500114,253.5457611,
4.56916666,252.5150452,
4.570833206,252.9082642,
4.572500229,251.1678925,
4.574166775,252.0372009,
4.575833797,251.4294128,
4.577499866,252.262619,
4.579166889,252.7363281,
4.580833435,250.8139038,
4.582499981,252.7730103,
4.584167004,252.3191528,
4.585833073,252.5505981,
4.587500095,251.663269,
4.589166641,250.8278809,
4.590833664,252.3830872,
4.59250021,252.216217,
4.594166756,252.4709473,
4.595833302,252.1531525,
4.597500324,253.7397461,
4.59916687,252.2433624,
4.600833416,250.5436249,
4.602499962,252.9056091,
4.604166508,250.3694916,
4.60583353,251.0304413,
4.607500076,252.1819153,
4.609167099,251.8584442,
4.610833168,252.2380981,
4.612500191,251.4402618,
4.614166737,252.6947021,
4.615833759,251.2611694,
4.617500305,252.0169373,
4.619166374,253.0000153,
4.620833397,252.6449585,
4.622499943,251.9795227,
4.624166965,253.2213898,
4.625833511,252.732193,
4.627500057,251.5734406,
4.629166603,252.6605682,
4.630833626,252.3135834,
4.632500172,252.9137726,
4.634167194,249.9906464,
4.635833263,252.3572998,
4.637499809,251.6842499,
4.639166832,254.2313995,
4.640833378,251.7077637,
4.642500401,253.1223602,
4.64416647,253.381485,
4.645833492,251.3939972,
4.647500038,252.1213531,
4.649167061,252.1122437,
4.650833607,254.2848511,
4.652499676,252.2064819,
4.654166698,252.4659271,
4.655833244,254.5539093,
4.657500267,251.5091858,
4.659166813,252.2864685,
4.660833359,251.5092163,
4.662499905,253.4719696,
4.664166927,251.6789703,
4.665833473,251.5618744,
4.667500496,252.9965057,
4.669166565,251.8535004,
4.670833111,253.1208344,
4.672500134,251.682251,
4.674166679,252.2225342,
4.675833702,250.6171722,
4.677499771,252.0645905,
4.679166794,251.5704346,
4.68083334,251.7798767,
4.682500362,252.4582977,
4.684166908,251.8547211,
4.685833454,250.5538483,
4.6875,252.6179199,
4.689166546,251.1693268,
4.690833569,251.9732666,
4.692500114,251.8287048,
4.69416666,250.5337372,
4.695833206,251.8173523,
4.697500229,250.7835693,
4.699166775,252.9619904,
4.700833797,251.1576691,
4.702499866,253.1954041,
4.704166889,253.5723114,
4.705833435,254.0125885,
4.707499981,253.4314728,
4.709167004,252.0420837,
4.710833073,252.7151337,
4.712500095,252.3110504,
4.714166641,251.6321869,
4.715833664,251.5571747,
4.71750021,251.5393524,
4.719166756,253.1875305,
4.720833302,251.0107117,
4.722500324,253.8939056,
4.72416687,251.7014465,
4.725833416,252.5998077,
4.727499962,252.3276215,
4.729166508,251.8805237,
4.73083353,252.5466309,
4.732500076,250.3607941,
4.734167099,251.1096954,
4.735833168,251.9859009,
4.737500191,252.4351807,
4.739166737,250.9795074,
4.740833759,252.4155426,
4.742500305,251.9467468,
4.744166374,251.5231018,
4.745833397,252.0284729,
4.747499943,251.4100342,
4.749166965,251.2242126,
4.750833511,251.2966461,
4.752500057,252.0654144,
4.754166603,253.4331055,
4.755833626,252.371048,
4.757500172,251.929306,
4.759167194,250.9857483,
4.760833263,251.3062897,
4.762499809,252.6770477,
4.764166832,252.0608063,
4.765833378,250.946228,
4.767500401,251.8231201,
4.76916647,252.9684601,
4.770833492,251.6423187,
4.772500038,252.0462036,
4.774167061,251.3785706,
4.775833607,252.8614655,
4.777499676,251.0415955,
4.779166698,252.4531708,
4.780833244,250.3867188,
4.782500267,251.3173218,
4.784166813,252.6030273,
4.785833359,249.8159943,
4.787499905,250.7649384,
4.789166927,252.4766388,
4.790833473,251.4416351,
4.792500496,249.598526,
4.794166565,252.522583,
4.795833111,253.2259216,
4.797500134,250.7015839,
4.799166679,250.6377716,
4.800833702,251.9890442,
4.802499771,251.8200531,
4.804166794,252.0690613,
4.80583334,252.0942993,
4.807500362,252.4073944,
4.809166908,250.1235657,
4.810833454,251.2189484,
4.8125,252.5684509,
4.814166546,251.9554749,
4.815833569,251.7593536,
4.817500114,250.71138,
4.81916666,250.7670288,
4.820833206,250.3325043,
4.822500229,251.4484253,
4.824166775,253.4283142,
4.825833797,250.7464294,
4.827499866,250.1555634,
4.829166889,252.9265289,
4.830833435,251.7351227,
4.832499981,250.9067383,
4.834167004,251.2258301,
4.835833073,251.045105,
4.837500095,251.6272125,
4.839166641,251.8224487,
4.840833664,252.4420624,
4.84250021,251.2959595,
4.844166756,251.4755402,
4.845833302,251.1212006,
4.847500324,251.7635498,
4.84916687,249.0915222,
4.850833416,251.1732941,
4.852499962,251.7023315,
4.854166508,252.5287628,
4.85583353,250.6928406,
4.857500076,252.5506897,
4.859167099,250.739212,
4.860833168,252.3092957,
4.862500191,250.8049622,
4.864166737,252.4971619,
4.865833759,251.7624512,
4.867500305,250.4315948,
4.869166374,250.6555328,
4.870833397,251.504715,
4.872499943,251.8872986,
4.874166965,251.5855103,
4.875833511,251.8404388,
4.877500057,252.4786224,
4.879166603,249.794342,
4.880833626,251.8224945,
4.882500172,250.7698517,
4.884167194,251.4572449,
4.885833263,251.1942444,
4.887499809,249.7589722,
4.889166832,251.5485535,
4.890833378,250.5141144,
4.892500401,250.8195343,
4.89416647,250.8929901,
4.895833492,251.2502747,
4.897500038,250.7806091,
4.899167061,250.8454895,
4.900833607,249.8300781,
4.902499676,252.7071533,
4.904166698,251.8183899,
4.905833244,251.3215179,
4.907500267,249.5427246,
4.909166813,252.1352234,
4.910833359,251.3064728,
4.912499905,252.8536072,
4.914166927,252.0179443,
4.915833473,251.1196747,
4.917500496,252.704834,
4.919166565,251.2587585,
4.920833111,249.5008087,
4.922500134,251.0401306,
4.924166679,252.3349457,
4.925833702,251.0516357,
4.927499771,252.5818939,
4.929166794,251.0175934,
4.93083334,250.2411652,
4.932500362,251.0128632,
4.934166908,252.7928314,
4.935833454,251.3003387,
4.9375,252.1700592,
4.939166546,252.0029907,
4.940833569,251.6246185,
4.942500114,251.0485687,
4.94416666,251.7089539,
4.945833206,251.1935883,
4.947500229,251.2162018,
4.949166775,251.7814636,
4.950833797,251.4078979,
4.952499866,251.4258881,
4.954166889,251.0379028,
4.955833435,252.0878906,
4.957499981,251.4794159,
4.959167004,250.5279541,
4.960833073,251.2750549,
4.962500095,251.1574554,
4.964166641,250.3854675,
4.965833664,250.1051178,
4.96750021,251.64711,
4.969166756,250.4829102,
4.970833302,252.1412048,
4.972500324,250.3092346,
4.97416687,251.8073883,
4.975833416,250.76651,
4.977499962,250.2613678,
4.979166508,251.2155762,
4.98083353,251.3026276,
4.982500076,251.8584747,
4.984167099,250.6905518,
4.985833168,251.6868439,
4.987500191,250.9823761,
4.989166737,250.5862427,
4.990833759,250.4571075,
4.992500305,250.1066589,
4.994166374,249.4338989,
4.995833397,250.5704803,
4.997499943,250.6544037,
4.999166965,250.3016815,
5.000833511,250.9425354,
5.002500057,251.879837,
5.004166603,250.8383636,
5.005833626,251.841568,
5.007500172,250.2449799,
5.009167194,250.9088287,
5.010833263,251.701828,
5.012499809,251.7722321,
5.014166832,250.7592163,
5.015833378,251.1107025,
5.017500401,250.4700775,
5.01916647,250.0058136,
5.020833492,249.9719696,
5.022500038,249.8827057,
5.024167061,250.4073944,
5.025833607,250.416748,
5.027499676,252.2405396,
5.029166698,251.0097961,
5.030833244,249.0188446,
5.032500267,251.4735718,
5.034166813,250.8732147,
5.035833359,250.5767975,
5.037499905,250.6511841,
5.039166927,253.1577911,
5.040833473,249.278717,
5.042500496,250.6855469,
5.044166565,250.5882721,
5.045833111,250.5112,
5.047500134,251.4139404,

