1,,
Time (min),Intensity (a.u.),
0.0008333333535,345.0934143,
0.002500000177,345.8790588,
0.004166666884,347.5271912,
0.005833333358,345.5751038,
0.007500000298,346.7000732,
0.009166667238,346.8453674,
0.01083333418,345.0706482,
0.01250000019,347.2969971,
0.01416666713,344.4696655,
0.01583333313,345.5075378,
0.01750000194,345.3492432,
0.01916666701,346.4055176,
0.02083333395,345.1227722,
0.02250000089,345.8956299,
0.02416666783,345.6958923,
0.02583333477,343.6403809,
0.02749999985,344.8139038,
0.02916666679,345.9708862,
0.03083333373,346.1698914,
0.03250000253,346.1510925,
0.03416666761,345.5174255,
0.03583333641,345.15625,
0.03750000149,345.6325073,
0.03916667029,346.1761475,
0.04083333537,344.8686523,
0.04250000045,346.2359009,
0.04416666925,346.0631714,
0.04583333433,345.972168,
0.04750000313,345.5359802,
0.04916666821,347.412323,
0.05083333328,344.8015747,
0.05250000209,346.7461853,
0.05416666716,343.3927612,
0.05583333597,344.330719,
0.05750000104,346.3960266,
0.05916666612,345.7923889,
0.06083333492,345.7924805,
0.0625,347.14328,
0.06416667253,345.9010315,
0.0658333376,345.0049744,
0.06750000268,345.859436,
0.06916666776,342.6234741,
0.07083333284,345.495636,
0.07249999791,345.4400024,
0.07416667044,346.2055054,
0.07583333552,345.895752,
0.0775000006,348.0455017,
0.07916666567,346.5706482,
0.08083333075,345.5823059,
0.08250000328,346.2117615,
0.08416666836,346.0657349,
0.08583333343,344.7785034,
0.08749999851,343.6160889,
0.08916666359,346.1868286,
0.09083333611,346.2936096,
0.09250000119,344.7706604,
0.09416666627,345.9804382,
0.09583333135,345.1625061,
0.09749999642,344.3573608,
0.09916666895,345.4117432,
0.100833334,343.9934998,
0.1024999991,347.506073,
0.1041666642,345.9542542,
0.1058333293,346.1510925,
0.1075000018,345.8365173,
0.1091666669,344.8519287,
0.1108333319,344.8027039,
0.112499997,346.9616394,
0.1141666621,346.0565491,
0.1158333346,345.3788147,
0.1174999997,346.4171753,
0.1191666648,344.784729,
0.1208333299,345.7893066,
0.1224999949,346.3410034,
0.1241666749,344.8416748,
0.1258333325,345.2974548,
0.1274999976,344.9418945,
0.1291666627,345.7986145,
0.1308333278,347.6012573,
0.1325000077,344.8586731,
0.1341666728,343.8065491,
0.1358333379,346.701355,
0.137500003,346.1465149,
0.1391666681,345.3823547,
0.1408333331,345.9724731,
0.1424999982,345.3103638,
0.1441666782,345.1777649,
0.1458333284,344.8127441,
0.1475000083,345.0553894,
0.1491666585,344.6200562,
0.1508333385,346.3326721,
0.1525000036,346.3154602,
0.1541666687,344.6112671,
0.1558333337,346.0643921,
0.1574999988,347.9745178,
0.1591666639,344.2331543,
0.1608333439,344.7632751,
0.162499994,345.2878418,
0.164166674,346.4725037,
0.1658333242,344.1015625,
0.1675000042,345.1645203,
0.1691666692,346.2427368,
0.1708333343,345.3963623,
0.1724999994,343.7494202,
0.1741666645,345.2384338,
0.1758333296,344.6317749,
0.1775000095,346.1373596,
0.1791666597,345.3073425,
0.1808333397,346.9065247,
0.1824999899,344.7289124,
0.1841666698,346.0774841,
0.1858333498,347.639679,
0.1875,347.1704407,
0.18916668,344.0528564,
0.1908333302,344.4429932,
0.1925000101,344.657074,
0.1941666752,345.7251282,
0.1958333403,346.1300049,
0.1975000054,344.2950745,
0.1991666704,343.9442749,
0.2008333355,343.7513123,
0.2025000155,345.3194885,
0.2041666657,344.4379272,
0.2058333457,345.8387451,
0.2074999958,346.9528809,
0.2091666758,343.5132446,
0.2108333409,344.1358643,
0.212500006,344.9057312,
0.214166671,344.350708,
0.2158333361,343.8677673,
0.2175000012,346.6990051,
0.2191666812,345.4744263,
0.2208333313,344.3887939,
0.2225000113,343.5758667,
0.2241666615,343.4208374,
0.2258333415,345.1360779,
0.2275000066,347.6886597,
0.2291666716,342.5354919,
0.2308333367,344.1611328,
0.2325000018,342.6590881,
0.2341666669,344.9036255,
0.2358333468,345.3396606,
0.237499997,345.6214905,
0.239166677,345.4987793,
0.2408333272,344.6496887,
0.2425000072,345.8545532,
0.2441666722,345.1844177,
0.2458333373,343.6209412,
0.2475000024,344.3013306,
0.2491666675,345.2437744,
0.2508333325,345.2588806,
0.2524999976,344.7683105,
0.2541666627,343.2958679,
0.2558333278,344.7819214,
0.2574999928,344.8649292,
0.2591666579,343.2964783,
0.2608333528,343.3502502,
0.2624999881,347.2068481,
0.264166683,345.6449585,
0.2658333182,345.756958,
0.2675000131,344.6428528,
0.2691666484,345.1608276,
0.2708333433,343.9386292,
0.2725000083,344.2103882,
0.2741666734,343.7954712,
0.2758333385,342.939209,
0.2775000036,346.3479004,
0.2791666687,343.5796204,
0.2808333337,344.8092957,
0.2824999988,343.463501,
0.2841666937,344.1375122,
0.285833329,342.5571289,
0.287499994,345.3348999,
0.2891666591,345.7681885,
0.290833354,344.828186,
0.2925000191,345.2208862,
0.2941666543,343.0471802,
0.2958333194,342.8692322,
0.2975000143,342.9235229,
0.2991666794,345.6870422,
0.3008333445,344.7532959,
0.3024999797,341.5580139,
0.3041666746,344.6947937,
0.3058333397,342.9950867,
0.3075000048,345.5231934,
0.3091666996,345.5968933,
0.3108333349,344.2702332,
0.3125,345.5789795,
0.3141666651,345.2232666,
0.31583336,343.290863,
0.317500025,345.353302,
0.3191666603,346.3596497,
0.3208333254,344.6960754,
0.3225000203,345.5629272,
0.3241666853,342.6765137,
0.3258333504,346.4952393,
0.3274999857,342.9183655,
0.3291666806,343.0769653,
0.3308333457,343.1859436,
0.3325000107,344.4822083,
0.3341666758,345.0668945,
0.3358333409,344.7348328,
0.337500006,344.5595093,
0.339166671,341.939209,
0.3408333361,343.6959534,
0.342500031,342.2955627,
0.3441666663,343.1859436,
0.3458333313,343.1495056,
0.3474999964,344.0033875,
0.3491666913,342.329834,
0.3508333564,344.6586914,
0.3524999917,344.4400635,
0.3541666567,343.4614258,
0.3558333516,343.3283997,
0.3575000167,343.4204102,
0.3591666818,341.818634,
0.360833317,344.4231262,
0.3625000119,342.304657,
0.364166677,345.4550781,
0.3658333421,345.3213806,
0.3675000072,344.6127319,
0.3691666722,344.2049255,
0.3708333373,344.9472656,
0.3725000024,341.2840576,
0.3741666675,343.9176941,
0.3758333623,344.4514465,
0.3774999976,343.7896729,
0.3791666627,346.1158142,
0.3808333278,344.5070496,
0.3825000226,343.6783142,
0.3841666877,344.4473877,
0.385833323,344.5310364,
0.3874999881,345.2955933,
0.389166683,343.3961487,
0.390833348,343.5545044,
0.3925000131,343.650177,
0.3941666484,345.6364441,
0.3958333433,344.0654907,
0.3975000083,345.4985962,
0.3991666734,343.4386902,
0.4008333385,343.4950562,
0.4025000036,344.9174194,
0.4041666687,343.365387,
0.4058333337,343.7642212,
0.4074999988,343.484436,
0.4091666937,342.9208984,
0.410833329,344.6260986,
0.412499994,345.0330505,
0.4141666591,344.3031006,
0.415833354,344.5279236,
0.4175000191,343.7896423,
0.4191666543,343.1125488,
0.4208333194,344.7822266,
0.4225000143,344.9648438,
0.4241666794,342.9672546,
0.4258333445,342.7791138,
0.4274999797,343.3200378,
0.4291666746,343.0249023,
0.4308333397,343.2710571,
0.4325000048,344.9897461,
0.4341666996,344.4628296,
0.4358333349,343.0570984,
0.4375,345.7540588,
0.4391666651,344.0129089,
0.44083336,341.9886169,
0.442500025,342.6920166,
0.4441666603,342.974884,
0.4458333254,345.0033264,
0.4475000203,344.0496216,
0.4491666853,342.9802856,
0.4508333504,342.8019714,
0.4524999857,342.4390869,
0.4541666806,345.0765686,
0.4558333457,344.5384216,
0.4575000107,341.7619019,
0.4591666758,343.4003601,
0.4608333409,343.3409119,
0.462500006,342.4651794,
0.464166671,343.3807068,
0.4658333361,343.3284912,
0.467500031,344.0489502,
0.4691666663,345.3876648,
0.4708333313,344.3545837,
0.4724999964,343.4506226,
0.4741666913,344.0005493,
0.4758333564,341.3218384,
0.4774999917,343.3980713,
0.4791666567,344.8124695,
0.4808333516,343.2284851,
0.4825000167,344.625946,
0.4841666818,343.1213684,
0.485833317,341.8745728,
0.4875000119,342.3833313,
0.489166677,344.1999512,
0.4908333421,344.0788879,
0.4925000072,344.5326538,
0.4941666722,344.3044739,
0.4958333373,342.7380371,
0.4975000024,343.7542725,
0.4991666675,341.8822021,
0.5008333325,342.5074158,
0.5024999976,344.0405579,
0.5041666627,342.5914917,
0.5058333278,342.1661377,
0.5074999928,341.8027344,
0.5091666579,343.836731,
0.510833323,343.8917847,
0.5124999881,344.0671692,
0.5141666532,341.7434998,
0.5158333182,339.8250427,
0.5175000429,341.6556702,
0.5191666484,342.2672424,
0.5208333135,342.7289429,
0.5224999785,342.1790771,
0.5241667032,344.4673157,
0.5258333683,344.9452515,
0.5274999738,342.9992676,
0.5291666389,343.1700745,
0.5308333635,342.6381836,
0.5325000286,343.2001648,
0.5341666341,344.6459656,
0.5358333588,341.6279602,
0.5375000238,342.7023621,
0.5391666889,343.1734009,
0.540833354,340.4684448,
0.5424999595,341.3718567,
0.5441666842,341.3389893,
0.5458333492,343.1269531,
0.5475000143,342.6339111,
0.5491666794,344.1050415,
0.5508333445,344.6454163,
0.5525000095,342.6460571,
0.5541666746,344.1001587,
0.5558333993,343.528656,
0.5575000048,344.1908264,
0.5591666698,344.4538879,
0.5608333349,343.4571228,
0.5625,344.7740173,
0.5641667247,343.6187439,
0.5658333302,343.4678955,
0.5674999952,343.4526367,
0.5691667199,343.5597839,
0.5708333254,343.3863831,
0.5725000501,340.6939697,
0.5741666555,343.0184631,
0.5758333206,342.7003784,
0.5775000453,342.6960754,
0.5791666508,342.4258118,
0.5808333755,343.1362305,
0.5825000405,345.3859558,
0.584166646,343.3067017,
0.5858333707,342.6286926,
0.5874999762,346.6010437,
0.5891667008,341.8014832,
0.5908333659,344.7940979,
0.5924999714,346.2728577,
0.5941666961,344.2818604,
0.5958333611,341.4008789,
0.5975000262,344.3699036,
0.5991666913,343.3478699,
0.6008332968,343.3909302,
0.6025000215,343.37323,
0.6041666865,342.2117615,
0.6058333516,343.4952087,
0.6075000167,342.9719543,
0.6091666818,343.8822327,
0.6108333468,343.1107178,
0.6125000119,340.875,
0.614166677,342.8276978,
0.6158333421,344.3572388,
0.6175000072,340.7237244,
0.6191666722,343.7686157,
0.6208333373,345.2268982,
0.622500062,343.070282,
0.6241666675,345.7677307,
0.6258333325,342.4778442,
0.6274999976,343.2440796,
0.6291666627,341.4317322,
0.6308333874,342.741333,
0.6324999928,340.8378296,
0.6341666579,344.3841858,
0.6358333826,343.5063782,
0.6374999881,344.5469971,
0.6391667128,342.2269592,
0.6408333182,342.6767273,
0.6424999833,341.6162109,
0.644166708,342.8904419,
0.6458333135,344.2774658,
0.6475000381,344.6505737,
0.6491667032,344.4201965,
0.6508333087,344.2409668,
0.6525000334,343.5228577,
0.6541666389,342.4492493,
0.6558333635,343.4743347,
0.6575000286,341.8256836,
0.6591666341,342.2284546,
0.6608333588,341.9556274,
0.6625000238,341.4054565,
0.6641666889,343.5586853,
0.665833354,341.730896,
0.6674999595,344.3814392,
0.6691666842,342.9378662,
0.6708333492,342.520752,
0.6725000143,342.3371277,
0.6741666794,344.2809753,
0.6758333445,342.81604,
0.6775000095,342.6770935,
0.6791666746,342.9114075,
0.6808333993,341.2854614,
0.6825000048,342.9422302,
0.6841666698,342.2267151,
0.6858333349,342.8303528,
0.6875,341.5941467,
0.6891667247,344.3017883,
0.6908333302,344.1878052,
0.6924999952,342.2557373,
0.6941667199,341.8249817,
0.6958333254,341.760498,
0.6975000501,342.8299561,
0.6991666555,341.4934082,
0.7008333206,342.9129333,
0.7025000453,342.4697571,
0.7041666508,343.4672546,
0.7058333755,342.4922485,
0.7075000405,343.3143616,
0.709166646,342.9243774,
0.7108333707,342.4880066,
0.7124999762,341.8703003,
0.7141667008,341.9233093,
0.7158333659,343.2736206,
0.7174999714,342.1029053,
0.7191666961,343.4525757,
0.7208333611,342.5001526,
0.7225000262,343.9348145,
0.7241666913,343.5166931,
0.7258332968,342.0507507,
0.7275000215,340.8525696,
0.7291666865,343.0739136,
0.7308333516,341.5464478,
0.7325000167,342.5732727,
0.7341666818,341.4577026,
0.7358333468,342.141571,
0.7375000119,342.5744324,
0.739166677,341.2023621,
0.7408333421,342.7536011,
0.7425000072,344.3401184,
0.7441666722,342.3017578,
0.7458333373,343.9187927,
0.747500062,342.901886,
0.7491666675,342.3996887,
0.7508333325,343.2215881,
0.7524999976,341.7667542,
0.7541666627,341.7183838,
0.7558333874,342.6812134,
0.7574999928,342.4787598,
0.7591666579,343.4781799,
0.7608333826,343.0339966,
0.7624999881,340.5588989,
0.7641667128,345.1564331,
0.7658333182,341.9136353,
0.7674999833,341.8915405,
0.769166708,342.9543457,
0.7708333135,342.5221252,
0.7725000381,343.5158691,
0.7741667032,339.8605652,
0.7758333087,343.039856,
0.7775000334,343.6942749,
0.7791666389,341.0994263,
0.7808333635,343.0662231,
0.7825000286,341.744812,
0.7841666341,342.1586304,
0.7858333588,343.1847839,
0.7875000238,343.3299561,
0.7891666889,341.1124573,
0.790833354,341.6470337,
0.7924999595,343.8764038,
0.7941666842,344.4198303,
0.7958333492,341.761322,
0.7975000143,342.9802856,
0.7991666794,343.411377,
0.8008333445,344.6029663,
0.8025000095,341.8250122,
0.8041666746,343.2511292,
0.8058333993,344.3693237,
0.8075000048,343.2594299,
0.8091666698,341.9623718,
0.8108333349,342.4546509,
0.8125,341.9364624,
0.8141667247,341.9995422,
0.8158333302,343.2312927,
0.8174999952,342.0084229,
0.8191667199,343.5608215,
0.8208333254,341.5256348,
0.8225000501,341.9248657,
0.8241666555,342.3078308,
0.8258333206,342.1988525,
0.8275000453,343.6003723,
0.8291666508,341.6534424,
0.8308333755,342.0188599,
0.8325000405,341.0291748,
0.834166646,341.0372009,
0.8358333707,344.4921875,
0.8374999762,341.5667114,
0.8391667008,344.401825,
0.8408333659,342.7601318,
0.8424999714,341.3063049,
0.8441666961,341.5618286,
0.8458333611,343.1903687,
0.8475000262,341.1782532,
0.8491666913,341.5006104,
0.8508332968,342.821991,
0.8525000215,343.7771606,
0.8541666865,342.3518982,
0.8558333516,340.6060181,
0.8575000167,342.1102905,
0.8591666818,343.4344482,
0.8608333468,344.714447,
0.8625000119,343.2281189,
0.864166677,342.2917175,
0.8658333421,340.9850769,
0.8675000072,342.1569519,
0.8691666722,343.7372742,
0.8708333373,341.2250061,
0.872500062,342.7723694,
0.8741666675,343.1285095,
0.8758333325,341.8445435,
0.8774999976,344.3098145,
0.8791666627,341.5019836,
0.8808333874,342.5841064,
0.8824999928,343.5407715,
0.8841666579,341.4388428,
0.8858333826,341.717865,
0.8874999881,343.2359924,
0.8891667128,343.0787659,
0.8908333182,342.5700073,
0.8924999833,342.7554321,
0.894166708,343.0745544,
0.8958333135,342.5372009,
0.8975000381,342.218689,
0.8991667032,343.9987183,
0.9008333087,341.6421204,
0.9025000334,341.6716309,
0.9041666389,343.9073181,
0.9058333635,343.1962891,
0.9075000286,341.672699,
0.9091666341,341.3027039,
0.9108333588,342.8893738,
0.9125000238,342.7778931,
0.9141666889,341.9511414,
0.915833354,343.4301453,
0.9174999595,341.4458923,
0.9191666842,343.4407349,
0.9208333492,343.4126892,
0.9225000143,343.7200012,
0.9241666794,343.0301514,
0.9258333445,342.5127869,
0.9275000095,343.522644,
0.9291666746,342.1390076,
0.9308333993,342.1831055,
0.9325000048,342.8129883,
0.9341666698,343.9783325,
0.9358333349,344.2279053,
0.9375,341.2443542,
0.9391667247,340.5802002,
0.9408333302,341.9606934,
0.9424999952,340.7155762,
0.9441667199,341.6678467,
0.9458333254,342.8709412,
0.9475000501,343.6444397,
0.9491666555,342.2698364,
0.9508333206,343.6369019,
0.9525000453,341.6030884,
0.9541666508,342.8224792,
0.9558333755,339.7217407,
0.9575000405,343.8529663,
0.959166646,341.822937,
0.9608333707,341.8900146,
0.9624999762,343.2086792,
0.9641667008,343.636322,
0.9658333659,343.4641724,
0.9674999714,342.6017151,
0.9691666961,343.2558899,
0.9708333611,341.117218,
0.9725000262,341.9724426,
0.9741666913,343.1437683,
0.9758332968,343.514801,
0.9775000215,344.1585083,
0.9791666865,342.8065186,
0.9808333516,342.9522705,
0.9825000167,341.9467163,
0.9841666818,343.0177307,
0.9858333468,342.7641907,
0.9875000119,342.3060913,
0.989166677,342.0516052,
0.9908333421,343.2246094,
0.9925000072,341.2805786,
0.9941666722,343.4302979,
0.9958333373,341.0875244,
0.997500062,342.3558655,
0.9991666675,342.0659485,
1.000833273,341.5777588,
1.002500057,342.1394958,
1.004166722,342.9012146,
1.005833387,342.7131348,
1.007500052,341.8496704,
1.009166598,344.6475525,
1.010833383,341.2829285,
1.012500048,343.4311523,
1.014166713,342.4943542,
1.015833378,341.7512817,
1.017500043,342.2839661,
1.019166708,343.1817932,
1.020833373,342.2482605,
1.022500038,342.3768616,
1.024166703,342.6326294,
1.025833368,342.5778809,
1.027500033,340.0753784,
1.029166698,341.6019897,
1.030833364,343.0089722,
1.032500029,341.3188782,
1.034166694,342.7868042,
1.035833359,344.7884216,
1.037500024,342.3421326,
1.039166689,342.4440918,
1.040833354,339.9393921,
1.042500019,341.7709351,
1.044166684,340.6715698,
1.045833349,344.160675,
1.047500014,342.9048157,
1.049166679,340.9818115,
1.050833344,341.3608704,
1.05250001,341.0210876,
1.054166675,341.1035156,
1.05583334,343.9397888,
1.057500005,340.5648193,
1.05916667,341.0624084,
1.060833335,340.9096375,
1.0625,343.6314697,
1.064166665,341.7622681,
1.06583333,342.1451416,
1.067499995,343.0105286,
1.06916666,340.5822754,
1.070833325,342.7557983,
1.07249999,341.348053,
1.074166775,341.7241211,
1.07583344,342.4084778,
1.077499986,343.2097778,
1.079166651,343.5420837,
1.080833316,342.2643127,
1.0825001,342.3954163,
1.084166765,340.9059143,
1.085833311,340.7099609,
1.087499976,339.7240906,
1.089166641,342.4289246,
1.090833426,341.2277527,
1.092500091,340.8528748,
1.094166636,341.7518616,
1.095833302,343.2858887,
1.097499967,340.9432678,
1.099166751,342.8286438,
1.100833416,343.2714844,
1.102500081,342.1704102,
1.104166627,342.1840515,
1.105833292,342.4050903,
1.107500076,340.6605835,
1.109166741,342.6917419,
1.110833406,341.1907654,
1.112499952,342.1854553,
1.114166617,342.396698,
1.115833402,340.8312683,
1.117500067,342.5298157,
1.119166732,342.7306824,
1.120833278,342.2753296,
1.122499943,341.2853699,
1.124166727,342.2693787,
1.125833392,339.5497742,
1.127500057,341.567627,
1.129166722,339.3700867,
1.130833268,339.1517334,
1.132500052,342.810791,
1.134166718,342.2516785,
1.135833383,342.8778992,
1.137500048,342.4631653,
1.139166594,343.321167,
1.140833378,342.6498413,
1.142500043,343.7568665,
1.144166708,342.3087769,
1.145833373,341.6238098,
1.147499919,339.5334778,
1.149166703,340.4228821,
1.150833368,344.0666199,
1.152500033,341.5937805,
1.154166698,342.5485535,
1.155833364,341.5062561,
1.157500029,342.3487854,
1.159166694,340.8756104,
1.160833359,342.8869629,
1.162500024,342.307373,
1.164166689,342.8947144,
1.165833354,342.9894104,
1.167500019,343.6542358,
1.169166684,343.3561707,
1.170833349,343.4042053,
1.172500014,342.9782104,
1.174166799,342.7204895,
1.175833344,341.7130127,
1.17750001,341.8305359,
1.179166675,342.5238647,
1.18083334,344.2850342,
1.182500124,342.2278748,
1.18416667,342.0469666,
1.185833335,343.3736877,
1.1875,340.5649719,
1.189166665,342.4590759,
1.190833449,341.0734863,
1.192499995,340.9233704,
1.19416666,342.1982117,
1.195833325,342.9344482,
1.19749999,343.1626587,
1.199166775,340.5195618,
1.20083344,342.4137268,
1.202499986,342.8511963,
1.204166651,342.4429321,
1.205833316,340.6752625,
1.2075001,342.0905151,
1.209166765,341.3320923,
1.210833311,341.4369202,
1.212499976,340.6625977,
1.214166641,340.4529419,
1.215833426,342.138031,
1.217500091,341.7681885,
1.219166636,340.5600281,
1.220833302,341.8945618,
1.222499967,341.7873535,
1.224166751,342.5887146,
1.225833416,342.1565552,
1.227500081,341.4143066,
1.229166627,342.4437561,
1.230833292,338.6488953,
1.232500076,342.9387207,
1.234166741,341.274292,
1.235833406,341.7218323,
1.237499952,341.8543701,
1.239166617,344.3794556,
1.240833402,341.2428894,
1.242500067,341.7936096,
1.244166732,341.1514587,
1.245833278,342.5137634,
1.247499943,341.9958496,
1.249166727,341.0901489,
1.250833392,343.5050964,
1.252500057,340.6704102,
1.254166722,340.6364136,
1.255833268,341.0879822,
1.257500052,339.9345093,
1.259166718,343.3685303,
1.260833383,342.6139221,
1.262500048,343.1367188,
1.264166594,341.541626,
1.265833378,341.2209778,
1.267500043,342.5433655,
1.269166708,340.6768188,
1.270833373,341.9764404,
1.272499919,343.4225769,
1.274166703,341.3850708,
1.275833368,342.697998,
1.277500033,343.1219482,
1.279166698,342.3463745,
1.280833364,340.3232422,
1.282500029,342.7123108,
1.284166694,342.9150085,
1.285833359,340.9089355,
1.287500024,342.5402222,
1.289166689,341.4515991,
1.290833354,343.2647095,
1.292500019,341.633606,
1.294166684,342.3528137,
1.295833349,341.9104309,
1.297500014,340.2248535,
1.299166799,341.3039246,
1.300833344,342.3549194,
1.30250001,341.8551331,
1.304166675,342.3206787,
1.30583334,341.3041077,
1.307500124,343.5812073,
1.30916667,343.0361328,
1.310833335,341.657196,
1.3125,342.2178345,
1.314166665,340.6083984,
1.315833449,340.6662598,
1.317499995,341.0084839,
1.31916666,342.2640991,
1.320833325,342.6075745,
1.32249999,340.8877563,
1.324166775,341.5198059,
1.32583344,341.0512695,
1.327499986,341.6157227,
1.329166651,342.5387268,
1.330833316,341.9932861,
1.3325001,342.9334717,
1.334166765,340.1179199,
1.335833311,338.5305481,
1.337499976,341.7379761,
1.339166641,343.5932007,
1.340833426,341.349884,
1.342500091,339.6565857,
1.344166636,339.8775024,
1.345833302,342.037323,
1.347499967,343.1987,
1.349166751,340.2681274,
1.350833416,341.2108154,
1.352500081,342.9228821,
1.354166627,340.8106384,
1.355833292,341.7680054,
1.357500076,341.2073669,
1.359166741,343.460022,
1.360833406,341.1222229,
1.362499952,341.2258911,
1.364166617,343.4614258,
1.365833402,339.727417,
1.367500067,340.2330933,
1.369166732,341.0646973,
1.370833278,342.0755615,
1.372499943,341.5674438,
1.374166727,342.9620361,
1.375833392,342.3591614,
1.377500057,341.9542847,
1.379166722,341.3614807,
1.380833268,341.1433716,
1.382500052,341.6332703,
1.384166718,341.2123718,
1.385833383,342.8813477,
1.387500048,341.8243713,
1.389166594,341.3365173,
1.390833378,342.8345337,
1.392500043,342.1603394,
1.394166708,342.2518311,
1.395833373,343.7637329,
1.397499919,342.0383606,
1.399166703,342.3261108,
1.400833368,340.2144775,
1.402500033,341.5491028,
1.404166698,342.8918762,
1.405833364,341.9888916,
1.407500029,341.5157471,
1.409166694,341.605957,
1.410833359,340.5112915,
1.412500024,341.6087646,
1.414166689,340.8129578,
1.415833354,341.227417,
1.417500019,343.8823547,
1.419166684,340.7670898,
1.420833349,342.4308472,
1.422500014,340.1030884,
1.424166799,340.7040405,
1.425833344,341.9978333,
1.42750001,341.7449646,
1.429166675,343.438385,
1.43083334,342.6951904,
1.432500124,341.4134216,
1.43416667,341.3918457,
1.435833335,340.9120789,
1.4375,341.6761475,
1.439166665,341.2189941,
1.440833449,341.3858643,
1.442499995,340.7052307,
1.44416666,340.3028564,
1.445833325,340.6906128,
1.44749999,341.6614075,
1.449166775,341.6356201,
1.45083344,341.342041,
1.452499986,342.9522705,
1.454166651,341.3488159,
1.455833316,341.3503418,
1.4575001,342.3670959,
1.459166765,340.7733154,
1.460833311,341.9447632,
1.462499976,341.7998657,
1.464166641,341.217041,
1.465833426,339.5882568,
1.467500091,341.8005371,
1.469166636,341.2143555,
1.470833302,341.0856934,
1.472499967,340.8195801,
1.474166751,342.0636292,
1.475833416,341.5058899,
1.477500081,342.3345337,
1.479166627,340.7191162,
1.480833292,341.1801147,
1.482500076,340.5298767,
1.484166741,340.7144165,
1.485833406,340.4832458,
1.487499952,342.6373291,
1.489166617,341.9020386,
1.490833402,342.3315735,
1.492500067,341.114502,
1.494166732,342.7095032,
1.495833278,340.9360962,
1.497499943,340.0716248,
1.499166727,341.038147,
1.500833392,340.155426,
1.502500057,342.4105225,
1.504166722,340.1757813,
1.505833268,340.7866211,
1.507500052,340.6706543,
1.509166718,341.1869507,
1.510833383,342.646759,
1.512500048,341.8262634,
1.514166594,342.1941223,
1.515833378,342.049408,
1.517500043,341.5749817,
1.519166708,339.8870544,
1.520833373,340.4891663,
1.522499919,342.7833252,
1.524166703,339.625,
1.525833368,342.1405334,
1.527500033,340.2265625,
1.529166698,340.9696655,
1.530833364,340.4951172,
1.532500029,341.4302673,
1.534166694,341.5815735,
1.535833359,339.3470459,
1.537500024,341.6156921,
1.539166689,341.4105225,
1.540833354,341.3175049,
1.542500019,340.979187,
1.544166684,341.4627075,
1.545833349,340.0835571,
1.547500014,339.0879822,
1.549166799,343.9846802,
1.550833344,340.8073425,
1.55250001,341.1937561,
1.554166675,341.0719299,
1.55583334,340.7388611,
1.557500124,340.5666199,
1.55916667,342.3096924,
1.560833335,341.3233948,
1.5625,339.1146851,
1.564166665,341.5682373,
1.565833449,341.882782,
1.567499995,342.8897095,
1.56916666,339.8442383,
1.570833325,341.657074,
1.57249999,340.4859009,
1.574166775,341.7572021,
1.57583344,340.8696899,
1.577499986,341.1541443,
1.579166651,339.6584473,
1.580833316,341.2861328,
1.5825001,340.9955139,
1.584166765,341.4035339,
1.585833311,340.8770447,
1.587499976,340.9902344,
1.589166641,339.1895447,
1.590833426,340.9190979,
1.592500091,342.5483398,
1.594166636,339.5354919,
1.595833302,340.9394226,
1.597499967,341.3327332,
1.599166751,342.2677612,
1.600833416,339.6052246,
1.602500081,341.0205078,
1.604166627,341.7392273,
1.605833292,341.5709534,
1.607500076,341.7729187,
1.609166741,341.0476379,
1.610833406,341.2802124,
1.612499952,341.8708496,
1.614166617,340.5189514,
1.615833402,339.1914673,
1.617500067,339.7013245,
1.619166732,340.8640137,
1.620833278,340.7932739,
1.622499943,339.9449768,
1.624166727,339.8116455,
1.625833392,340.3166504,
1.627500057,340.8275146,
1.629166722,341.6139526,
1.630833268,339.9708557,
1.632500052,341.0802612,
1.634166718,342.6164856,
1.635833383,340.9649048,
1.637500048,340.7702026,
1.639166594,340.1605225,
1.640833378,341.0791016,
1.642500043,340.9048767,
1.644166708,341.4625549,
1.645833373,341.8499756,
1.647499919,340.8660583,
1.649166703,342.0639648,
1.650833368,343.0559387,
1.652500033,340.336792,
1.654166698,340.1114197,
1.655833364,341.2536926,
1.657500029,340.3649292,
1.659166694,342.1356506,
1.660833359,340.235199,
1.662500024,341.1901855,
1.664166689,341.0434875,
1.665833354,340.3279114,
1.667500019,340.5812378,
1.669166684,340.9825745,
1.670833349,339.2500916,
1.672500014,341.4165344,
1.674166799,342.0178528,
1.675833344,339.3480835,
1.67750001,342.7575073,
1.679166675,340.1322937,
1.68083334,341.2923279,
1.682500124,340.3010254,
1.68416667,339.6469421,
1.685833335,340.324707,
1.6875,342.6361084,
1.689166665,341.4621277,
1.690833449,341.0141907,
1.692499995,341.5381775,
1.69416666,340.3259583,
1.695833325,340.1567383,
1.69749999,342.0074768,
1.699166775,338.7328186,
1.70083344,342.1301575,
1.702499986,340.1784363,
1.704166651,341.1019287,
1.705833316,339.7582092,
1.7075001,340.7530518,
1.709166765,341.3728638,
1.710833311,340.0151367,
1.712499976,341.072998,
1.714166641,342.9779358,
1.715833426,340.1975403,
1.717500091,340.7666626,
1.719166636,341.489502,
1.720833302,341.4840698,
1.722499967,340.9751587,
1.724166751,341.3036194,
1.725833416,343.8940125,
1.727500081,340.5605469,
1.729166627,338.938385,
1.730833292,339.8944702,
1.732500076,341.7578125,
1.734166741,341.7277222,
1.735833406,338.5606384,
1.737499952,342.2689819,
1.739166617,340.532135,
1.740833402,340.1899414,
1.742500067,341.4671021,
1.744166732,340.7958984,
1.745833278,341.477417,
1.747499943,341.1004028,
1.749166727,340.7332153,
1.750833392,343.25354,
1.752500057,340.7526855,
1.754166722,340.2605286,
1.755833268,340.4966431,
1.757500052,341.3790894,
1.759166718,341.655365,
1.760833383,343.1164551,
1.762500048,341.2327881,
1.764166594,340.3904114,
1.765833378,341.5492859,
1.767500043,341.4054565,
1.769166708,340.0734863,
1.770833373,342.2376099,
1.772499919,340.7599182,
1.774166703,339.6292725,
1.775833368,341.2201538,
1.777500033,341.4856567,
1.779166698,340.4745789,
1.780833364,340.8730469,
1.782500029,340.6206055,
1.784166694,339.9055786,
1.785833359,340.5609436,
1.787500024,338.1582642,
1.789166689,339.9772034,
1.790833354,344.0583801,
1.792500019,341.4766846,
1.794166684,340.6316528,
1.795833349,340.9808044,
1.797500014,340.6400757,
1.799166799,341.072937,
1.800833344,340.0567322,
1.80250001,341.3426819,
1.804166675,343.033783,
1.80583334,340.1501465,
1.807500124,341.2821045,
1.80916667,340.4519958,
1.810833335,340.8039856,
1.8125,339.4450073,
1.814166665,340.6660156,
1.815833449,340.911499,
1.817499995,341.6404724,
1.81916666,340.2655334,
1.820833325,340.6070862,
1.82249999,344.6468811,
1.824166775,341.5553589,
1.82583344,340.3216858,
1.827499986,341.438446,
1.829166651,339.9979553,
1.830833316,338.8390808,
1.8325001,341.8684692,
1.834166765,341.7906494,
1.835833311,341.5895691,
1.837499976,340.5357056,
1.839166641,341.5272522,
1.840833426,339.2827454,
1.842500091,340.8124084,
1.844166636,340.7879028,
1.845833302,341.5074463,
1.847499967,339.6694946,
1.849166751,341.731842,
1.850833416,339.96875,
1.852500081,340.6065063,
1.854166627,340.8588257,
1.855833292,339.5380859,
1.857500076,341.4700623,
1.859166741,341.2493896,
1.860833406,339.919342,
1.862499952,341.5270081,
1.864166617,342.0986633,
1.865833402,341.5725098,
1.867500067,340.3518677,
1.869166732,340.3319397,
1.870833278,339.7736816,
1.872499943,340.9809875,
1.874166727,339.6522827,
1.875833392,342.8633118,
1.877500057,340.164917,
1.879166722,339.8482361,
1.880833268,341.09021,
1.882500052,339.7052002,
1.884166718,339.3641663,
1.885833383,341.2749023,
1.887500048,341.2311096,
1.889166594,340.1034546,
1.890833378,342.0762634,
1.892500043,342.3642273,
1.894166708,341.6730652,
1.895833373,340.0114441,
1.897499919,340.6130981,
1.899166703,340.2146912,
1.900833368,339.9832764,
1.902500033,339.3018494,
1.904166698,340.4776306,
1.905833364,341.234436,
1.907500029,341.8224487,
1.909166694,340.3975525,
1.910833359,338.9962158,
1.912500024,339.3878784,
1.914166689,341.9515686,
1.915833354,341.9740601,
1.917500019,341.2681274,
1.919166684,340.2966003,
1.920833349,343.118988,
1.922500014,339.1512146,
1.924166799,342.0646667,
1.925833344,342.4277954,
1.92750001,342.2338257,
1.929166675,339.5177917,
1.93083334,341.9529114,
1.932500124,339.6903381,
1.93416667,342.1701965,
1.935833335,342.6338806,
1.9375,342.1576538,
1.939166665,341.8468628,
1.940833449,339.5568237,
1.942499995,342.0793152,
1.94416666,341.4165039,
1.945833325,341.8196411,
1.94749999,340.8389587,
1.949166775,341.1671143,
1.95083344,339.5084839,
1.952499986,340.4485474,
1.954166651,341.7355652,
1.955833316,340.3612366,
1.9575001,340.1124268,
1.959166765,342.2310486,
1.960833311,340.039856,
1.962499976,342.121521,
1.964166641,339.7307434,
1.965833426,340.4079285,
1.967500091,342.47229,
1.969166636,338.8027954,
1.970833302,340.8125916,
1.972499967,340.3634338,
1.974166751,341.1155701,
1.975833416,342.6803284,
1.977500081,340.2614441,
1.979166627,340.3892517,
1.980833292,340.6452942,
1.982500076,341.0618286,
1.984166741,339.9992981,
1.985833406,342.4448853,
1.987499952,339.8152161,
1.989166617,341.0171509,
1.990833402,339.9666138,
1.992500067,342.1999512,
1.994166732,343.1644287,
1.995833278,341.1982117,
1.997499943,340.7703857,
1.999166727,340.5303345,
2.000833273,339.5002747,
2.002500057,341.0126038,
2.004166603,340.4173279,
2.005833387,339.9362793,
2.007500172,343.2183533,
2.009166718,340.3216553,
2.010833263,339.7746582,
2.012500048,341.0590515,
2.014166594,341.7747192,
2.015833378,341.841095,
2.017500162,342.4373779,
2.019166708,339.4997864,
2.020833254,342.401001,
2.022500038,326.9952393,
2.024166822,308.9502563,
2.025833368,308.4132996,
2.027499914,307.2941284,
2.029166698,293.5867615,
2.030833244,272.2983704,
2.032500029,275.5214844,
2.034166813,267.297821,
2.035833359,281.541748,
2.037499905,303.5344543,
2.039166689,310.7670288,
2.040833473,311.5152893,
2.042500019,313.4029541,
2.044166803,312.1270752,
2.045833349,314.2945862,
2.047499895,316.4222412,
2.049166679,322.8178711,
2.050833464,332.0621033,
2.05250001,321.1946716,
2.054166555,313.9659119,
2.05583334,309.4519958,
2.057500124,285.3094788,
2.05916667,322.4981689,
2.060833454,294.3963928,
2.0625,304.9038086,
2.064166546,319.6542053,
2.06583333,322.3802795,
2.067500114,310.0072632,
2.06916666,317.136261,
2.070833445,293.9936218,
2.07249999,301.1807861,
2.074166775,306.5393372,
2.075833321,287.0779724,
2.077500105,298.9660034,
2.079166651,300.5135193,
2.080833197,279.3717041,
2.082499981,280.8643494,
2.084166765,322.5965881,
2.085833311,292.4272461,
2.087500095,284.2460632,
2.089166641,319.0228882,
2.090833426,265.4112854,
2.092499971,270.2025757,
2.094166756,304.0782166,
2.095833302,334.5458374,
2.097500086,334.967804,
2.099166632,333.0061035,
2.100833416,335.3247375,
2.102499962,334.6576538,
2.104166746,333.4996338,
2.105833292,333.3061218,
2.107500076,333.7050171,
2.109166622,334.888916,
2.110833406,333.0784912,
2.112499952,330.6022644,
2.114166737,332.9420471,
2.115833521,332.2445679,
2.117500067,332.9168701,
2.119166613,332.4726257,
2.120833397,332.6460876,
2.122499943,330.3938599,
2.124166727,332.6266479,
2.125833273,332.007782,
2.127500057,332.1602173,
2.129166603,330.8184509,
2.130833387,330.7885742,
2.132500172,330.1788635,
2.134166718,332.7129211,
2.135833502,331.9860229,
2.137500048,328.8228455,
2.139166832,330.6133118,
2.140833378,329.8611145,
2.142500162,329.67453,
2.144166708,328.6375122,
2.145833254,330.7969971,
2.147500038,330.2614136,
2.149166584,328.9338379,
2.150833368,329.2234497,
2.152500153,330.6099854,
2.154166698,327.2486572,
2.155833483,328,
2.157500029,328.8280334,
2.159166813,329.2810974,
2.160833597,328.0733337,
2.162499905,328.9802856,
2.164166689,328.8045044,
2.165833235,328.5746155,
2.167500019,326.6869812,
2.169166803,327.9986572,
2.170833349,326.9237671,
2.172500134,328.9274292,
2.174166679,326.8076477,
2.175833464,327.8174133,
2.177500248,326.264801,
2.179166555,326.9567261,
2.18083334,328.1073608,
2.182499886,327.2539063,
2.18416667,326.6701355,
2.185833454,325.625061,
2.1875,327.039917,
2.189166784,325.2434082,
2.19083333,326.8581543,
2.192500114,327.2769775,
2.194166899,326.621582,
2.195833445,326.0689087,
2.19749999,324.2580566,
2.199166536,325.2017822,
2.200833321,326.5010376,
2.202500105,323.3825989,
2.204166651,326.8365479,
2.205833435,323.8502502,
2.207499981,324.4936523,
2.209166765,324.6687622,
2.210833549,324.723938,
2.212500095,322.2064819,
2.21416688,324.615448,
2.215833187,324.6246338,
2.217499971,324.1062622,
2.219166756,325.0768433,
2.220833302,324.7271423,
2.222500086,323.1433716,
2.224166632,324.0472107,
2.225833416,322.274353,
2.2275002,322.4897156,
2.229166746,322.2146606,
2.23083353,323.1841125,
2.232499838,321.9424438,
2.234166622,323.1106567,
2.235833406,324.2796936,
2.237499952,322.2543945,
2.239166737,323.0707703,
2.240833282,322.6014099,
2.242500067,322.3060608,
2.244166851,322.0445862,
2.245833397,321.8022461,
2.247500181,322.374939,
2.249166727,322.0164795,
2.250833273,321.2487488,
2.252500057,321.9914551,
2.254166603,321.6462708,
2.255833387,322.459259,
2.257499933,320.6741028,
2.259166718,321.0609436,
2.260833502,325.1846008,
2.262500048,323.607666,
2.264166832,319.9473572,
2.265833378,321.1454468,
2.267500162,321.2480774,
2.269166708,320.7763062,
2.270833254,321.6898804,
2.272500038,320.4745789,
2.274166584,319.3883362,
2.275833368,320.027771,
2.277500153,320.0265503,
2.279166698,318.3573608,
2.280833483,321.1591492,
2.282500029,320.2533264,
2.284166813,318.7424927,
2.285833597,319.0888672,
2.287499905,319.5691223,
2.289166689,318.9959412,
2.290833235,319.9491577,
2.292500019,319.8635254,
2.294166803,318.4143372,
2.295833349,318.8521118,
2.297500134,319.8062134,
2.299166679,318.2795105,
2.300833464,317.6266479,
2.302500248,317.7617188,
2.304166555,319.6045532,
2.30583334,318.4838562,
2.307499886,318.7163391,
2.30916667,319.3092957,
2.310833454,319.0991821,
2.3125,316.5823059,
2.314166784,317.5140686,
2.31583333,317.1443787,
2.317500114,318.1785278,
2.319166899,317.3310242,
2.320833445,317.9864807,
2.32249999,318.2828064,
2.324166536,317.4293518,
2.325833321,317.5393372,
2.327500105,317.9394531,
2.329166651,316.9727173,
2.330833435,316.6408691,
2.332499981,316.9144287,
2.334166765,318.3792114,
2.335833549,316.3489685,
2.337500095,315.1959229,
2.33916688,318.9953918,
2.340833187,317.888031,
2.342499971,316.1369629,
2.344166756,317.8425293,
2.345833302,314.6062012,
2.347500086,318.1075134,
2.349166632,316.394928,
2.350833416,317.284668,
2.3525002,318.0408325,
2.354166746,316.7568359,
2.35583353,317.7615051,
2.357499838,316.8675537,
2.359166622,314.5229797,
2.360833406,316.7171021,
2.362499952,315.3001099,
2.364166737,317.6148376,
2.365833282,314.1548462,
2.367500067,315.8173828,
2.369166851,314.8441772,
2.370833397,316.7571716,
2.372500181,316.197052,
2.374166727,314.9028931,
2.375833273,313.0105286,
2.377500057,314.2723389,
2.379166603,314.9888916,
2.380833387,314.5983887,
2.382499933,312.7400513,
2.384166718,314.4616089,
2.385833502,314.942688,
2.387500048,314.9078064,
2.389166832,313.3588562,
2.390833378,314.3073425,
2.392500162,314.378418,
2.394166708,313.6471252,
2.395833254,313.8360901,
2.397500038,313.900116,
2.399166584,312.8215027,
2.400833368,312.7316284,
2.402500153,312.46698,
2.404166698,313.2298889,
2.405833483,311.3686829,
2.407500029,313.9690857,
2.409166813,312.8848267,
2.410833597,312.706665,
2.412499905,313.0391541,
2.414166689,314.6395264,
2.415833235,311.6266479,
2.417500019,311.8988647,
2.419166803,310.8885803,
2.420833349,312.0654602,
2.422500134,312.2723083,
2.424166679,313.2072449,
2.425833464,312.3856812,
2.427500248,312.4264221,
2.429166555,312.2499084,
2.43083334,313.4916992,
2.432499886,311.7037659,
2.43416667,312.2657166,
2.435833454,313.010498,
2.4375,311.3226929,
2.439166784,312.4970093,
2.44083333,310.9543152,
2.442500114,312.6317444,
2.444166899,310.7399292,
2.445833445,311.6800232,
2.44749999,311.7401733,
2.449166536,312.0990295,
2.450833321,310.0084229,
2.452500105,310.366394,
2.454166651,311.0545654,
2.455833435,312.3399658,
2.457499981,309.9552612,
2.459166765,310.039032,
2.460833549,311.8034973,
2.462500095,311.0584717,
2.46416688,310.2200928,
2.465833187,311.5580139,
2.467499971,311.8096313,
2.469166756,310.3486938,
2.470833302,311.4579163,
2.472500086,307.7380981,
2.474166632,308.9248657,
2.475833416,308.0960693,
2.4775002,310.7246399,
2.479166746,307.5180359,
2.48083353,308.942749,
2.482499838,311.5993347,
2.484166622,308.6222839,
2.485833406,310.1032715,
2.487499952,309.3660278,
2.489166737,308.5541077,
2.490833282,310.0145569,
2.492500067,309.7203369,
2.494166851,309.8479919,
2.495833397,308.8857422,
2.497500181,307.5674744,
2.499166727,307.0476685,
2.500833273,309.652771,
2.502500057,310.3656006,
2.504166603,307.4663391,
2.505833387,308.7494507,
2.507499933,310.546814,
2.509166718,306.3215637,
2.510833502,306.2161255,
2.512500048,309.9263611,
2.514166832,307.3505554,
2.515833378,306.737793,
2.517500162,307.0907288,
2.519166708,305.8832092,
2.520833254,306.8915405,
2.522500038,306.8386536,
2.524166584,308.7536926,
2.525833368,307.0810242,
2.527500153,307.4650574,
2.529166698,307.3707275,
2.530833483,307.0576782,
2.532500029,306.6456299,
2.534166813,308.3442078,
2.535833597,309.0355835,
2.537499905,307.2893982,
2.539166689,308.0062256,
2.540833235,305.2960815,
2.542500019,305.8417664,
2.544166803,305.774353,
2.545833349,306.8900146,
2.547500134,308.2578735,
2.549166679,309.0579529,
2.550833464,306.4355774,
2.552500248,306.5711975,
2.554166555,304.7559204,
2.55583334,306.2611694,
2.557499886,305.2323608,
2.55916667,306.4671936,
2.560833454,306.7556152,
2.5625,307.3791809,
2.564166784,305.0643616,
2.56583333,303.9888,
2.567500114,306.8522644,
2.569166899,305.4007874,
2.570833445,306.5843506,
2.57249999,307.1748352,
2.574166536,305.0695801,
2.575833321,305.4104004,
2.577500105,306.1157227,
2.579166651,304.3997498,
2.580833435,304.8710022,
2.582499981,305.030304,
2.584166765,305.3779602,
2.585833549,305.9788208,
2.587500095,304.4498596,
2.58916688,305.7406006,
2.590833187,305.5866089,
2.592499971,303.8170471,
2.594166756,303.0204773,
2.595833302,303.8273926,
2.597500086,305.163208,
2.599166632,304.1256409,
2.600833416,303.1270447,
2.6025002,305.2706909,
2.604166746,304.1021423,
2.60583353,304.5440979,
2.607499838,304.8970337,
2.609166622,303.2450256,
2.610833406,302.0941772,
2.612499952,302.5470276,
2.614166737,302.8014221,
2.615833282,303.0892029,
2.617500067,303.3766479,
2.619166851,301.7512817,
2.620833397,302.1348267,
2.622500181,302.816803,
2.624166727,302.8349609,
2.625833273,302.2474976,
2.627500057,301.177063,
2.629166603,301.0413818,
2.630833387,302.7886047,
2.632499933,302.9950256,
2.634166718,301.7700195,
2.635833502,303.8639221,
2.637500048,300.3952637,
2.639166832,300.8560181,
2.640833378,299.1586914,
2.642500162,302.8774414,
2.644166708,302.3368835,
2.645833254,300.5065308,
2.647500038,303.6016846,
2.649166584,301.9961853,
2.650833368,303.0180664,
2.652500153,300.5167542,
2.654166698,301.3185425,
2.655833483,301.78479,
2.657500029,302.8036804,
2.659166813,300.6766968,
2.660833597,301.2988586,
2.662499905,301.7504578,
2.664166689,301.8605652,
2.665833235,301.5651855,
2.667500019,300.2179565,
2.669166803,300.5878601,
2.670833349,300.1699219,
2.672500134,301.3189392,
2.674166679,302.0285034,
2.675833464,301.5340576,
2.677500248,299.9789429,
2.679166555,300.2911987,
2.68083334,301.2582397,
2.682499886,302.1622314,
2.68416667,302.7588806,
2.685833454,299.7269287,
2.6875,301.2117615,
2.689166784,303.8208313,
2.69083333,300.4050293,
2.692500114,300.7624817,
2.694166899,302.5658875,
2.695833445,301.3295288,
2.69749999,300.2789612,
2.699166536,302.4559631,
2.700833321,299.8276672,
2.702500105,300.0898743,
2.704166651,299.6413879,
2.705833435,300.8357849,
2.707499981,301.4828491,
2.709166765,301.1625977,
2.710833549,300.0943909,
2.712500095,301.4379272,
2.71416688,300.20578,
2.715833187,300.7485046,
2.717499971,300.931427,
2.719166756,301.5485229,
2.720833302,299.8751221,
2.722500086,301.8789978,
2.724166632,301.7234802,
2.725833416,299.1992798,
2.7275002,297.8492126,
2.729166746,300.920166,
2.73083353,299.4970703,
2.732499838,299.882843,
2.734166622,300.852417,
2.735833406,300.646698,
2.737499952,299.90802,
2.739166737,301.0643311,
2.740833282,300.6520691,
2.742500067,301.8482971,
2.744166851,301.3344727,
2.745833397,300.6966248,
2.747500181,300.4705505,
2.749166727,300.2974243,
2.750833273,301.6986694,
2.752500057,300.3891296,
2.754166603,299.9423828,
2.755833387,299.763092,
2.757499933,298.8190308,
2.759166718,301.5613403,
2.760833502,299.8667603,
2.762500048,300.1804199,
2.764166832,300.9588928,
2.765833378,300.5484009,
2.767500162,301.6683655,
2.769166708,299.0010681,
2.770833254,299.1402893,
2.772500038,300.4932556,
2.774166584,299.9342041,
2.775833368,300.1711121,
2.777500153,300.1216431,
2.779166698,302.0238037,
2.780833483,300.0360718,
2.782500029,300.9647827,
2.784166813,298.7365112,
2.785833597,301.1046448,
2.787499905,299.2935791,
2.789166689,299.9692383,
2.790833235,300.3742981,
2.792500019,300.4745483,
2.794166803,300.1448975,
2.795833349,298.8527832,
2.797500134,300.4064026,
2.799166679,298.5834961,
2.800833464,298.4064331,
2.802500248,300.5305176,
2.804166555,299.6366272,
2.80583334,299.3497314,
2.807499886,299.6998901,
2.80916667,298.6996765,
2.810833454,301.1157227,
2.8125,298.0991821,
2.814166784,299.0871887,
2.81583333,299.1532288,
2.817500114,299.1309204,
2.819166899,299.1873474,
2.820833445,298.3818665,
2.82249999,300.5892944,
2.824166536,299.2550354,
2.825833321,299.35495,
2.827500105,299.1147156,
2.829166651,298.5077209,
2.830833435,297.6429443,
2.832499981,297.8458862,
2.834166765,298.8080444,
2.835833549,299.7008362,
2.837500095,298.3901367,
2.83916688,298.0751343,
2.840833187,297.7815552,
2.842499971,297.4759827,
2.844166756,299.2061462,
2.845833302,297.5650635,
2.847500086,299.004303,
2.849166632,298.5579224,
2.850833416,299.3940735,
2.8525002,298.0741272,
2.854166746,298.8896484,
2.85583353,298.6688843,
2.857499838,298.8940125,
2.859166622,298.1589661,
2.860833406,298.752594,
2.862499952,299.8451843,
2.864166737,295.9372864,
2.865833282,298.9415894,
2.867500067,297.1412354,
2.869166851,297.9083862,
2.870833397,296.8429871,
2.872500181,299.3964539,
2.874166727,297.9864807,
2.875833273,299.1738892,
2.877500057,300.2029114,
2.879166603,298.6255188,
2.880833387,297.501709,
2.882499933,297.1629333,
2.884166718,295.8322449,
2.885833502,297.4095764,
2.887500048,297.0406799,
2.889166832,297.2801208,
2.890833378,297.2247314,
2.892500162,297.457428,
2.894166708,296.3237915,
2.895833254,297.1064758,
2.897500038,296.4422302,
2.899166584,296.4734497,
2.900833368,296.646698,
2.902500153,298.365387,
2.904166698,295.915741,
2.905833483,295.6167908,
2.907500029,298.4415894,
2.909166813,297.9494934,
2.910833597,298.0062561,
2.912499905,296.9130859,
2.914166689,296.4754639,
2.915833235,299.5566711,
2.917500019,297.6818848,
2.919166803,297.8835449,
2.920833349,298.2313232,
2.922500134,296.4608765,
2.924166679,298.0490723,
2.925833464,297.8487854,
2.927500248,295.0655823,
2.929166555,296.7487488,
2.93083334,296.252533,
2.932499886,296.9153137,
2.93416667,295.898407,
2.935833454,296.2262573,
2.9375,296.7466125,
2.939166784,296.4129333,
2.94083333,295.4523926,
2.942500114,297.9246216,
2.944166899,296.2904358,
2.945833445,296.3118286,
2.94749999,296.111969,
2.949166536,297.6235352,
2.950833321,294.5428467,
2.952500105,294.655426,
2.954166651,293.6255798,
2.955833435,295.478363,
2.957499981,295.7290344,
2.959166765,296.0109863,
2.960833549,294.4061279,
2.962500095,298.7060852,
2.96416688,296.9868774,
2.965833187,296.6689148,
2.967499971,295.4837646,
2.969166756,295.0725098,
2.970833302,295.0718689,
2.972500086,294.914032,
2.974166632,293.3422852,
2.975833416,296.8234253,
2.9775002,296.2324524,
2.979166746,296.5503235,
2.98083353,295.1737061,
2.982499838,296.6672058,
2.984166622,295.5465698,
2.985833406,295.6292419,
2.987499952,295.1409302,
2.989166737,295.7687988,
2.990833282,295.4949951,
2.992500067,293.4888306,
2.994166851,293.4663391,
2.995833397,294.9694214,
2.997500181,294.7105103,
2.999166727,291.611908,
3.000833273,295.2200928,
3.002500057,295.3268127,
3.004166603,293.3174438,
3.005833387,295.5953674,
3.007499933,294.7485962,
3.009166718,295.4008789,
3.010833502,292.6779175,
3.012500048,294.7105408,
3.014166832,295.6541443,
3.015833378,294.3851929,
3.017500162,293.476593,
3.019166708,296.9877625,
3.020833254,295.6347046,
3.022500038,293.25354,
3.024166584,293.6459656,
3.025833368,292.5537109,
3.027500153,294.0321045,
3.029166698,296.2280273,
3.030833483,295.3137207,
3.032500029,293.9755554,
3.034166813,295.0255432,
3.035833597,294.7102661,
3.037499905,296.0694275,
3.039166689,294.7870483,
3.040833235,293.9482117,
3.042500019,294.8177795,
3.044166803,293.2852783,
3.045833349,292.6438293,
3.047500134,292.7865295,
3.049166679,293.8005981,
3.050833464,294.0172424,
3.052500248,294.249115,
3.054166555,292.5952148,
3.05583334,295.5525818,
3.057499886,294.2164612,
3.05916667,291.2428589,
3.060833454,293.419281,
3.0625,293.8976135,
3.064166784,293.5746765,
3.06583333,293.4448547,
3.067500114,294.4724426,
3.069166899,295.1156616,
3.070833445,293.4232483,
3.07249999,294.9589539,
3.074166536,294.444397,
3.075833321,293.0900269,
3.077500105,294.9619751,
3.079166651,294.4295959,
3.080833435,292.9147034,
3.082499981,293.3644104,
3.084166765,293.3849487,
3.085833549,292.6881409,
3.087500095,292.1903381,
3.08916688,293.5444336,
3.090833187,292.0701904,
3.092499971,292.9363708,
3.094166756,292.2825012,
3.095833302,293.5985718,
3.097500086,293.4628296,
3.099166632,293.0589294,
3.100833416,293.2973328,
3.1025002,292.6320801,
3.104166746,293.8262634,
3.10583353,294.0188293,
3.107499838,293.4017334,
3.109166622,292.5054321,
3.110833406,293.2486877,
3.112499952,293.1033325,
3.114166737,292.0148926,
3.115833282,293.7606812,
3.117500067,293.1181946,
3.119166851,293.9386292,
3.120833397,290.6164551,
3.122500181,293.0662231,
3.124166727,293.3434753,
3.125833273,292.119751,
3.127500057,293.8754272,
3.129166603,293.151062,
3.130833387,291.7678528,
3.132499933,293.7218933,
3.134166718,292.3781128,
3.135833502,292.5994568,
3.137500048,293.8860779,
3.139166832,291.8497925,
3.140833378,292.5997009,
3.142500162,291.2245178,
3.144166708,292.3400574,
3.145833254,291.5765381,
3.147500038,291.9252625,
3.149166584,292.5381165,
3.150833368,292.528595,
3.152500153,292.9075928,
3.154166698,291.5155334,
3.155833483,292.0610352,
3.157500029,292.9555969,
3.159166813,292.4356079,
3.160833597,292.204834,
3.162499905,292.7384033,
3.164166689,291.180542,
3.165833235,291.8544617,
3.167500019,292.9902039,
3.169166803,292.2473145,
3.170833349,292.9034119,
3.172500134,294.0744019,
3.174166679,292.135437,
3.175833464,293.2426147,
3.177500248,292.2368774,
3.179166555,291.789093,
3.18083334,293.2183838,
3.182499886,292.2167358,
3.18416667,295.1869507,
3.185833454,291.9483032,
3.1875,290.0384216,
3.189166784,292.6755371,
3.19083333,292.2156372,
3.192500114,291.1672363,
3.194166899,292.7893066,
3.195833445,292.0143127,
3.19749999,292.4576721,
3.199166536,293.2055359,
3.200833321,291.8232422,
3.202500105,289.9323425,
3.204166651,292.3809204,
3.205833435,292.2582703,
3.207499981,291.0495605,
3.209166765,290.8697815,
3.210833549,292.2116394,
3.212500095,290.1803589,
3.21416688,290.7208862,
3.215833187,293.286499,
3.217499971,292.2981567,
3.219166756,290.8927307,
3.220833302,291.830658,
3.222500086,291.5669556,
3.224166632,291.9392395,
3.225833416,293.9844666,
3.2275002,289.3493042,
3.229166746,291.3649292,
3.23083353,290.2046509,
3.232499838,291.3020935,
3.234166622,292.432251,
3.235833406,291.0883789,
3.237499952,290.7392578,
3.239166737,291.6951904,
3.240833282,291.7055664,
3.242500067,291.2303162,
3.244166851,291.5785522,
3.245833397,290.3670349,
3.247500181,291.322113,
3.249166727,291.4121094,
3.250833273,291.7568359,
3.252500057,289.0125732,
3.254166603,289.4896545,
3.255833387,292.1833191,
3.257499933,289.9974365,
3.259166718,291.4854126,
3.260833502,290.456543,
3.262500048,290.1400146,
3.264166832,291.5929565,
3.265833378,290.4608765,
3.267500162,291.6443481,
3.269166708,290.8441772,
3.270833254,290.7205811,
3.272500038,292.0264893,
3.274166584,292.3444214,
3.275833368,290.803894,
3.277500153,289.7761536,
3.279166698,289.0759277,
3.280833483,290.8535156,
3.282500029,290.0787964,
3.284166813,291.5326843,
3.285833597,287.565094,
3.287499905,289.2420044,
3.289166689,290.9496765,
3.290833235,290.4326477,
3.292500019,291.3760681,
3.294166803,291.9753723,
3.295833349,291.6983032,
3.297500134,290.8999939,
3.299166679,291.1023865,
3.300833464,290.6404419,
3.302500248,290.7467651,
3.304166555,291.1757202,
3.30583334,291.7128601,
3.307499886,290.116333,
3.30916667,289.6025696,
3.310833454,288.4722595,
3.3125,290.0764465,
3.314166784,289.3814392,
3.31583333,290.1712341,
3.317500114,289.2640381,
3.319166899,290.2829895,
3.320833445,290.5381775,
3.32249999,290.5895691,
3.324166536,288.9470825,
3.325833321,288.5055542,
3.327500105,290.0157776,
3.329166651,289.4761963,
3.330833435,289.8661194,
3.332499981,287.72229,
3.334166765,290.9793396,
3.335833549,289.1148071,
3.337500095,289.6812439,
3.33916688,290.6705017,
3.340833187,288.8414307,
3.342499971,289.0965576,
3.344166756,289.5292358,
3.345833302,291.414978,
3.347500086,289.7285461,
3.349166632,290.1513977,
3.350833416,287.7731018,
3.3525002,291.1333008,
3.354166746,288.9065247,
3.35583353,289.2053528,
3.357499838,288.4957581,
3.359166622,287.8791809,
3.360833406,287.56427,
3.362499952,289.4895935,
3.364166737,289.8896484,
3.365833282,288.6074219,
3.367500067,289.4308472,
3.369166851,288.9494629,
3.370833397,289.8825989,
3.372500181,290.2554016,
3.374166727,288.7841187,
3.375833273,289.2557983,
3.377500057,289.6231079,
3.379166603,289.7877808,
3.380833387,291.2643127,
3.382499933,289.4580383,
3.384166718,289.0375366,
3.385833502,288.176178,
3.387500048,288.1077881,
3.389166832,287.7207336,
3.390833378,289.8937378,
3.392500162,288.2315369,
3.394166708,289.080719,
3.395833254,288.6080322,
3.397500038,288.2463684,
3.399166584,289.2691345,
3.400833368,289.1950989,
3.402500153,287.7312317,
3.404166698,285.7219238,
3.405833483,289.3014526,
3.407500029,289.6569824,
3.409166813,286.6782837,
3.410833597,288.0830078,
3.412499905,288.9054565,
3.414166689,289.633728,
3.415833235,289.9450684,
3.417500019,288.4967346,
3.419166803,288.6677246,
3.420833349,289.0141602,
3.422500134,288.8369141,
3.424166679,289.2680664,
3.425833464,288.0367432,
3.427500248,287.1893921,
3.429166555,288.8460693,
3.43083334,288.2398071,
3.432499886,288.4124756,
3.43416667,288.6700134,
3.435833454,287.7900391,
3.4375,286.9845886,
3.439166784,289.4403076,
3.44083333,287.8142395,
3.442500114,289.6662292,
3.444166899,287.8322754,
3.445833445,288.5903931,
3.44749999,289.5318604,
3.449166536,287.2882996,
3.450833321,288.7286987,
3.452500105,287.5820007,
3.454166651,289.6062927,
3.455833435,289.4160767,
3.457499981,287.9529724,
3.459166765,290.015564,
3.460833549,288.4138184,
3.462500095,287.6285095,
3.46416688,288.3574219,
3.465833187,288.1039429,
3.467499971,287.6008301,
3.469166756,287.4026489,
3.470833302,286.2823792,
3.472500086,286.9971924,
3.474166632,284.7353516,
3.475833416,287.0755615,
3.4775002,287.5341797,
3.479166746,285.7479553,
3.48083353,286.9994202,
3.482499838,286.7652283,
3.484166622,287.9411621,
3.485833406,287.9689026,
3.487499952,288.1261597,
3.489166737,288.0783997,
3.490833282,287.6349792,
3.492500067,288.159668,
3.494166851,287.8230896,
3.495833397,286.1529236,
3.497500181,287.0274658,
3.499166727,287.9656677,
3.500833273,287.6669617,
3.502500057,288.3610229,
3.504166603,287.3841553,
3.505833387,286.7071838,
3.507499933,286.7331543,
3.509166718,287.5703125,
3.510833502,287.7019348,
3.512500048,286.5597839,
3.514166832,288.4438477,
3.515833378,286.5310364,
3.517500162,286.4434814,
3.519166708,287.3407593,
3.520833254,287.493103,
3.522500038,287.706543,
3.524166584,287.2327271,
3.525833368,286.7230835,
3.527500153,287.4468994,
3.529166698,287.5484924,
3.530833483,287.0074463,
3.532500029,286.4272156,
3.534166813,285.2138367,
3.535833597,287.6885681,
3.537499905,287.1287842,
3.539166689,286.4978027,
3.540833235,286.6448669,
3.542500019,286.201355,
3.544166803,286.5988159,
3.545833349,286.7936401,
3.547500134,287.7446899,
3.549166679,287.0604553,
3.550833464,285.1013794,
3.552500248,286.1535339,
3.554166555,286.5862427,
3.55583334,284.4046936,
3.557499886,285.8062439,
3.55916667,286.1503906,
3.560833454,286.6426392,
3.5625,287.366394,
3.564166784,286.7538757,
3.56583333,288.0543823,
3.567500114,286.5433044,
3.569166899,290.1081848,
3.570833445,286.5079346,
3.57249999,286.8935242,
3.574166536,285.811615,
3.575833321,287.5499573,
3.577500105,287.6695251,
3.579166651,286.258667,
3.580833435,286.7962036,
3.582499981,285.6000977,
3.584166765,285.6844177,
3.585833549,285.9954834,
3.587500095,287.2835388,
3.58916688,288.4086304,
3.590833187,287.6824036,
3.592499971,287.5985107,
3.594166756,285.4792175,
3.595833302,286.3147583,
3.597500086,285.707489,
3.599166632,289.0296936,
3.600833416,286.8214722,
3.6025002,287.4329224,
3.604166746,286.1612244,
3.60583353,285.9935303,
3.607499838,285.8442078,
3.609166622,284.6140747,
3.610833406,286.8430786,
3.612499952,286.0221558,
3.614166737,285.6578674,
3.615833282,288.272522,
3.617500067,286.16922,
3.619166851,284.6873779,
3.620833397,285.3170166,
3.622500181,285.0334167,
3.624166727,286.4815674,
3.625833273,286.7644348,
3.627500057,288.4666748,
3.629166603,287.4374695,
3.630833387,286.7232971,
3.632499933,287.3161011,
3.634166718,284.6473694,
3.635833502,287.0548096,
3.637500048,285.5076294,
3.639166832,285.6428528,
3.640833378,284.4312134,
3.642500162,286.517334,
3.644166708,285.743988,
3.645833254,287.2896729,
3.647500038,285.4573364,
3.649166584,284.9938965,
3.650833368,285.4977417,
3.652500153,286.5210571,
3.654166698,284.4872437,
3.655833483,285.3926392,
3.657500029,285.0967712,
3.659166813,285.2720642,
3.660833597,286.7730408,
3.662499905,284.9480896,
3.664166689,286.7225952,
3.665833235,284.3315735,
3.667500019,286.5802612,
3.669166803,284.9006348,
3.670833349,286.0048218,
3.672500134,285.7896118,
3.674166679,285.5198669,
3.675833464,285.159729,
3.677500248,286.5076294,
3.679166555,284.737854,
3.68083334,283.8038635,
3.682499886,283.7201233,
3.68416667,284.6817627,
3.685833454,285.9602966,
3.6875,284.4518738,
3.689166784,284.0058594,
3.69083333,284.9824829,
3.692500114,285.1355591,
3.694166899,284.3598022,
3.695833445,286.518158,
3.69749999,286.2180176,
3.699166536,286.5545044,
3.700833321,286.587677,
3.702500105,286.1815491,
3.704166651,284.1047668,
3.705833435,286.2525024,
3.707499981,286.7094727,
3.709166765,284.9773254,
3.710833549,286.2190247,
3.712500095,285.1575012,
3.71416688,286.477478,
3.715833187,286.5513916,
3.717499971,285.3446655,
3.719166756,283.4557495,
3.720833302,283.2312012,
3.722500086,285.833374,
3.724166632,284.2226257,
3.725833416,285.4102173,
3.7275002,286.42276,
3.729166746,286.2940063,
3.73083353,283.6596985,
3.732499838,285.2664795,
3.734166622,283.8588562,
3.735833406,285.2788391,
3.737499952,285.2160034,
3.739166737,285.4117126,
3.740833282,283.7782288,
3.742500067,285.2062683,
3.744166851,286.8227844,
3.745833397,284.686676,
3.747500181,285.9812317,
3.749166727,286.328125,
3.750833273,284.884491,
3.752500057,285.1762695,
3.754166603,285.1061096,
3.755833387,283.6688843,
3.757499933,284.9254761,
3.759166718,286.612915,
3.760833502,284.8093262,
3.762500048,286.831543,
3.764166832,285.1020203,
3.765833378,281.7068176,
3.767500162,286.628418,
3.769166708,285.536438,
3.770833254,283.052887,
3.772500038,286.4440613,
3.774166584,284.1867065,
3.775833368,283.8252869,
3.777500153,284.8062134,
3.779166698,283.3969116,
3.780833483,284.9885254,
3.782500029,286.5180359,
3.784166813,283.4690552,
3.785833597,284.6313171,
3.787499905,283.4942322,
3.789166689,284.4468384,
3.790833235,284.0577393,
3.792500019,284.8363953,
3.794166803,284.1492004,
3.795833349,283.5108337,
3.797500134,285.062439,
3.799166679,285.4007874,
3.800833464,284.2823181,
3.802500248,284.6851807,
3.804166555,287.1148376,
3.80583334,285.8525391,
3.807499886,284.8746948,
3.80916667,284.1188965,
3.810833454,284.1584778,
3.8125,283.7640076,
3.814166784,284.4229126,
3.81583333,285.9570618,
3.817500114,283.1602173,
3.819166899,285.1637268,
3.820833445,283.6143799,
3.82249999,285.6202087,
3.824166536,286.0046692,
3.825833321,282.0574951,
3.827500105,284.2904968,
3.829166651,283.6203308,
3.830833435,284.7376709,
3.832499981,283.8115234,
3.834166765,282.67276,
3.835833549,284.495697,
3.837500095,284.2146606,
3.83916688,284.2304993,
3.840833187,284.6720886,
3.842499971,283.7483521,
3.844166756,283.3098145,
3.845833302,285.0126953,
3.847500086,284.0337219,
3.849166632,284.0713196,
3.850833416,285.0142822,
3.8525002,282.296814,
3.854166746,284.3290405,
3.85583353,281.7409058,
3.857499838,284.561676,
3.859166622,281.980072,
3.860833406,285.4750366,
3.862499952,283.1665039,
3.864166737,283.0507813,
3.865833282,284.6141052,
3.867500067,282.4438171,
3.869166851,284.5427551,
3.870833397,284.4127197,
3.872500181,284.0209045,
3.874166727,284.6731262,
3.875833273,284.5522766,
3.877500057,284.4252014,
3.879166603,281.3815613,
3.880833387,284.3585205,
3.882499933,284.1204224,
3.884166718,284.927063,
3.885833502,286.1042175,
3.887500048,284.8833618,
3.889166832,282.1633911,
3.890833378,284.721344,
3.892500162,284.0119019,
3.894166708,282.611145,
3.895833254,283.8797302,
3.897500038,283.5431824,
3.899166584,284.0215454,
3.900833368,283.0750732,
3.902500153,283.0769958,
3.904166698,283.7647705,
3.905833483,282.3070374,
3.907500029,282.2729797,
3.909166813,283.9092102,
3.910833597,283.3287354,
3.912499905,282.6741028,
3.914166689,284.4981384,
3.915833235,283.5975037,
3.917500019,282.0713501,
3.919166803,284.0653687,
3.920833349,283.7895813,
3.922500134,282.3314514,
3.924166679,283.3302307,
3.925833464,283.8993225,
3.927500248,283.9915466,
3.929166555,282.6229248,
3.93083334,282.2657776,
3.932499886,283.1585388,
3.93416667,285.3253784,
3.935833454,283.0963745,
3.9375,282.1572266,
3.939166784,283.2298279,
3.94083333,283.6333618,
3.942500114,281.3466187,
3.944166899,284.6570435,
3.945833445,284.0399475,
3.94749999,280.5298157,
3.949166536,283.1257935,
3.950833321,281.2306824,
3.952500105,285.4155884,
3.954166651,283.4906921,
3.955833435,282.832489,
3.957499981,283.4335327,
3.959166765,282.2927246,
3.960833549,284.0704346,
3.962500095,284.2729797,
3.96416688,281.3699341,
3.965833187,283.1044922,
3.967499971,281.2251892,
3.969166756,283.479187,
3.970833302,282.8450012,
3.972500086,281.6293335,
3.974166632,283.1531067,
3.975833416,281.5190735,
3.9775002,283.2989197,
3.979166746,282.3428955,
3.98083353,284.0634155,
3.982499838,285.0213623,
3.984166622,282.2008362,
3.985833406,284.0829773,
3.987499952,284.6448364,
3.989166737,282.8493347,
3.990833282,283.4393921,
3.992500067,284.0488892,
3.994166851,281.9694214,
3.995833397,282.338623,
3.997500181,281.1485901,
3.999166727,283.7035217,
4.000833511,284.8872375,
4.002500057,282.5293274,
4.004166603,282.9107666,
4.005833626,282.1387024,
4.007500172,282.2715759,
4.009166718,283.5223999,
4.010833263,283.1479187,
4.012499809,283.4004517,
4.014166832,280.785553,
4.015833378,282.147583,
4.017499924,283.7147522,
4.019166946,282.9385376,
4.020833492,284.7608948,
4.022500038,283.503479,
4.024166584,281.1661377,
4.025833607,281.8683167,
4.027500153,282.7632751,
4.029166698,282.6576538,
4.030833244,281.6818848,
4.03249979,282.2720337,
4.034166813,280.4104004,
4.035833359,282.3371887,
4.037499905,281.8507385,
4.039166927,282.5631104,
4.040833473,284.2521362,
4.042500019,279.0411377,
4.044167042,282.2670593,
4.045833111,280.2835083,
4.047500134,283.776123,
4.049166679,281.843811,
4.050833225,282.6543579,
4.052500248,283.5706787,
4.054166794,282.0457764,
4.05583334,283.393219,
4.057499886,281.7806396,
4.059166908,280.9940491,
4.060833454,281.5771484,
4.0625,282.5744629,
4.064166546,282.2628174,
4.065833092,284.0880737,
4.067500114,282.3956299,
4.06916666,284.123291,
4.070833206,282.1540222,
4.072500229,285.0136414,
4.074166775,282.9507141,
4.075833321,281.8890991,
4.077500343,282.4971924,
4.079166889,282.5605164,
4.080833435,282.6853333,
4.082499981,281.0295105,
4.084166527,281.9297791,
4.085833549,282.2185364,
4.087500095,282.9241028,
4.089166641,282.9199829,
4.090833187,283.4376831,
4.09250021,281.2964783,
4.094166756,283.2543335,
4.095833302,281.5947571,
4.097500324,279.8787231,
4.099166393,281.9843445,
4.100833416,282.0800476,
4.102499962,281.7608337,
4.104166508,281.9382935,
4.10583353,282.2009277,
4.107500076,282.0287476,
4.109166622,281.0502625,
4.110833645,281.0939331,
4.112500191,283.0861206,
4.114166737,282.189209,
4.115833282,281.906311,
4.117499828,279.8190613,
4.119166851,281.6955566,
4.120833397,282.8591614,
4.122499943,281.1173401,
4.124166489,280.3838806,
4.125833511,281.0678101,
4.127500057,281.6756592,
4.129166603,283.006897,
4.130833626,282.9551392,
4.132500172,282.4822388,
4.134166718,280.1416321,
4.135833263,280.3454895,
4.137499809,282.3338928,
4.139166832,281.9290466,
4.140833378,280.8731995,
4.142499924,283.6936646,
4.144166946,282.0008545,
4.145833492,279.8810425,
4.147500038,281.984436,
4.149166584,279.6207886,
4.150833607,284.2714233,
4.152500153,281.1746826,
4.154166698,279.922821,
4.155833244,280.4050903,
4.15749979,281.9987183,
4.159166813,280.9305115,
4.160833359,285.4193115,
4.162499905,284.3164673,
4.164166927,279.5137939,
4.165833473,281.9052734,
4.167500019,282.2738647,
4.169167042,280.2713928,
4.170833111,281.8222351,
4.172500134,281.214325,
4.174166679,281.2118835,
4.175833225,279.9047852,
4.177500248,281.4109497,
4.179166794,279.0215149,
4.18083334,281.1660156,
4.182499886,281.7649536,
4.184166908,283.4135742,
4.185833454,282.5907288,
4.1875,281.5161438,
4.189166546,280.953186,
4.190833092,281.9700623,
4.192500114,280.2531128,
4.19416666,282.1983643,
4.195833206,283.2767944,
4.197500229,280.9815979,
4.199166775,280.5493774,
4.200833321,280.4649963,
4.202500343,281.2572632,
4.204166889,279.9579468,
4.205833435,282.1386719,
4.207499981,280.9256287,
4.209166527,281.1008606,
4.210833549,281.0212708,
4.212500095,279.7497253,
4.214166641,281.0603943,
4.215833187,281.6443481,
4.21750021,279.6260071,
4.219166756,282.3296814,
4.220833302,281.0835876,
4.222500324,281.617981,
4.224166393,282.5890198,
4.225833416,279.9265137,
4.227499962,279.5205383,
4.229166508,279.2876282,
4.23083353,280.4742737,
4.232500076,280.3918152,
4.234166622,281.3612671,
4.235833645,282.446106,
4.237500191,280.6088562,
4.239166737,282.3054199,
4.240833282,280.5544739,
4.242499828,280.8177185,
4.244166851,281.9848328,
4.245833397,280.9785156,
4.247499943,281.0636902,
4.249166489,281.5688171,
4.250833511,281.7156372,
4.252500057,280.6902466,
4.254166603,280.2720642,
4.255833626,278.8410034,
4.257500172,281.2181091,
4.259166718,279.5187683,
4.260833263,278.729126,
4.262499809,280.6699219,
4.264166832,282.1763306,
4.265833378,280.5830688,
4.267500401,280.1366272,
4.26916647,281.6018982,
4.270833492,279.8527832,
4.272500038,279.7654724,
4.274167061,278.9630127,
4.275833607,279.7391968,
4.277499676,282.89151,
4.279166698,278.7918396,
4.280833244,281.1291809,
4.282500267,280.0804443,
4.284166813,279.7985229,
4.285833359,279.8249207,
4.287499905,280.2295227,
4.289166927,281.2079773,
4.290833473,281.1881409,
4.292500496,280.3387451,
4.294166565,279.9437866,
4.295833111,281.3111877,
4.297500134,281.5385437,
4.299166679,281.4222412,
4.300833702,280.2957458,
4.302499771,278.8306274,
4.304166794,281.2950134,
4.30583334,279.1697388,
4.307500362,281.7954712,
4.309166908,280.190033,
4.310833454,280.6382751,
4.3125,280.5702209,
4.314166546,281.0575867,
4.315833569,281.1985779,
4.317500114,281.8003845,
4.31916666,279.7076721,
4.320833206,280.0063782,
4.322500229,280.1585083,
4.324166775,279.4444885,
4.325833797,278.020813,
4.327499866,280.2744446,
4.329166889,281.0630798,
4.330833435,280.3083801,
4.332499981,278.8526306,
4.334167004,280.509613,
4.335833073,280.2749939,
4.337500095,279.8756409,
4.339166641,279.3999329,
4.340833664,277.8023682,
4.34250021,279.4747009,
4.344166756,281.3553162,
4.345833302,280.1226196,
4.347500324,280.2480164,
4.34916687,279.5132141,
4.350833416,280.6166382,
4.352499962,280.2868042,
4.354166508,279.6938782,
4.35583353,281.3975525,
4.357500076,279.2954712,
4.359167099,280.395813,
4.360833168,280.671936,
4.362500191,280.8510132,
4.364166737,279.776825,
4.365833759,278.6689148,
4.367500305,280.0837402,
4.369166374,279.2418823,
4.370833397,279.8647461,
4.372499943,280.605835,
4.374166965,279.799408,
4.375833511,278.1696167,
4.377500057,279.7620544,
4.379166603,281.3824158,
4.380833626,280.0635071,
4.382500172,280.2778931,
4.384167194,279.0716858,
4.385833263,278.3878174,
4.387499809,280.4618835,
4.389166832,279.1813965,
4.390833378,279.1651001,
4.392500401,279.5611572,
4.39416647,279.8423157,
4.395833492,278.3055725,
4.397500038,279.8929749,
4.399167061,281.4418335,
4.400833607,278.8847656,
4.402499676,280.1984863,
4.404166698,280.6421204,
4.405833244,282.3551941,
4.407500267,278.6384888,
4.409166813,279.3782959,
4.410833359,279.9885864,
4.412499905,280.5337524,
4.414166927,279.9498596,
4.415833473,279.8065796,
4.417500496,280.6010742,
4.419166565,281.0746765,
4.420833111,280.8595581,
4.422500134,280.5601807,
4.424166679,279.5868225,
4.425833702,277.6477356,
4.427499771,279.3123779,
4.429166794,279.9072571,
4.43083334,278.4475403,
4.432500362,278.8872681,
4.434166908,279.2208252,
4.435833454,279.3388977,
4.4375,279.7492981,
4.439166546,279.3299255,
4.440833569,279.8323059,
4.442500114,279.5108643,
4.44416666,278.6915588,
4.445833206,279.8406677,
4.447500229,279.4840088,
4.449166775,280.423645,
4.450833797,279.3547058,
4.452499866,278.1474609,
4.454166889,279.8709106,
4.455833435,279.1325073,
4.457499981,280.8847046,
4.459167004,279.2055054,
4.460833073,280.1273804,
4.462500095,280.4081421,
4.464166641,279.7419739,
4.465833664,279.4707642,
4.46750021,279.4041138,
4.469166756,279.7872314,
4.470833302,279.9754028,
4.472500324,278.98172,
4.47416687,278.6085815,
4.475833416,280.6481934,
4.477499962,278.9575195,
4.479166508,278.8699341,
4.48083353,279.6416931,
4.482500076,278.8340454,
4.484167099,279.9889221,
4.485833168,278.6836243,
4.487500191,278.6168213,
4.489166737,278.9083862,
4.490833759,279.0097656,
4.492500305,281.0349121,
4.494166374,278.4521179,
4.495833397,281.6782532,
4.497499943,279.8786926,
4.499166965,278.9109802,
4.500833511,278.5401001,
4.502500057,280.1998901,
4.504166603,279.7442322,
4.505833626,280.072937,
4.507500172,278.0967407,
4.509167194,277.5028992,
4.510833263,279.9130249,
4.512499809,278.1437073,
4.514166832,278.8900146,
4.515833378,279.3488464,
4.517500401,279.767395,
4.51916647,278.2134094,
4.520833492,278.8797607,
4.522500038,279.0423279,
4.524167061,278.7425537,
4.525833607,278.9244995,
4.527499676,279.3034973,
4.529166698,277.6133728,
4.530833244,280.1664734,
4.532500267,277.1888428,
4.534166813,278.2007446,
4.535833359,278.4938354,
4.537499905,280.1690979,
4.539166927,279.51828,
4.540833473,279.3087463,
4.542500496,278.8847046,
4.544166565,279.1452026,
4.545833111,279.9577637,
4.547500134,280.7733765,
4.549166679,279.0553589,
4.550833702,278.6236572,
4.552499771,279.181488,
4.554166794,278.879425,
4.55583334,278.8989563,
4.557500362,278.7791748,
4.559166908,279.1575012,
4.560833454,278.4717712,
4.5625,279.9934692,
4.564166546,281.0802917,
4.565833569,279.1498413,
4.567500114,279.125824,
4.56916666,278.5010681,
4.570833206,279.924408,
4.572500229,280.0623169,
4.574166775,278.5264893,
4.575833797,278.8052979,
4.577499866,279.3670044,
4.579166889,280.2297363,
4.580833435,277.6874084,
4.582499981,278.3540344,
4.584167004,279.5831299,
4.585833073,277.7388306,
4.587500095,279.3432922,
4.589166641,278.0030518,
4.590833664,278.7610168,
4.59250021,279.5335999,
4.594166756,278.3394775,
4.595833302,279.4566956,
4.597500324,277.6562805,
4.59916687,279.6166992,
4.600833416,279.7149963,
4.602499962,281.4769897,
4.604166508,278.3792725,
4.60583353,278.6345215,
4.607500076,278.7850037,
4.609167099,278.6030273,
4.610833168,278.6506958,
4.612500191,278.4764404,
4.614166737,277.8308105,
4.615833759,280.9129944,
4.617500305,279.8318481,
4.619166374,279.5986023,
4.620833397,279.5354004,
4.622499943,279.7420044,
4.624166965,277.1977844,
4.625833511,278.6246948,
4.627500057,277.9796448,
4.629166603,277.8700256,
4.630833626,279.4828796,
4.632500172,278.9700623,
4.634167194,277.5003662,
4.635833263,278.7868347,
4.637499809,276.7545166,
4.639166832,279.7842102,
4.640833378,277.2276001,
4.642500401,279.6448669,
4.64416647,277.1483459,
4.645833492,277.9017639,
4.647500038,279.71521,
4.649167061,278.1416321,
4.650833607,278.1947021,
4.652499676,279.0950928,
4.654166698,277.7640381,
4.655833244,278.4373474,
4.657500267,277.2728271,
4.659166813,279.0781555,
4.660833359,278.6577759,
4.662499905,277.9165955,
4.664166927,279.368866,
4.665833473,278.6264648,
4.667500496,278.1054993,
4.669166565,279.3499146,
4.670833111,279.1671448,
4.672500134,278.1647949,
4.674166679,279.6133118,
4.675833702,277.9493408,
4.677499771,277.661377,
4.679166794,278.6752319,
4.68083334,278.3027344,
4.682500362,278.672821,
4.684166908,279.6817932,
4.685833454,277.0544739,
4.6875,278.7773438,
4.689166546,278.4393921,
4.690833569,278.8001404,
4.692500114,278.1938171,
4.69416666,277.8939514,
4.695833206,279.6898193,
4.697500229,276.361084,
4.699166775,280.0753479,
4.700833797,278.3659668,
4.702499866,278.8356018,
4.704166889,280.1927795,
4.705833435,277.7599182,
4.707499981,279.0511475,
4.709167004,278.7240295,
4.710833073,276.7416077,
4.712500095,278.0601196,
4.714166641,280.283783,
4.715833664,278.292572,
4.71750021,276.7644348,
4.719166756,278.6059265,
4.720833302,279.3217468,
4.722500324,278.1615601,
4.72416687,276.9568176,
4.725833416,277.0988159,
4.727499962,279.2313843,
4.729166508,277.5354004,
4.73083353,277.6036377,
4.732500076,277.1182251,
4.734167099,279.6152344,
4.735833168,277.0709229,
4.737500191,277.6942444,
4.739166737,278.1947021,
4.740833759,278.6822815,
4.742500305,276.7497864,
4.744166374,278.4836121,
4.745833397,278.1533203,
4.747499943,277.4759827,
4.749166965,277.1595154,
4.750833511,277.5275879,
4.752500057,279.8797607,
4.754166603,278.1354675,
4.755833626,276.7810974,
4.757500172,277.6289063,
4.759167194,276.5724487,
4.760833263,278.6001587,
4.762499809,277.4107971,
4.764166832,278.4596863,
4.765833378,278.4292908,
4.767500401,278.2263794,
4.76916647,276.410675,
4.770833492,277.3329468,
4.772500038,279.020752,
4.774167061,277.5282898,
4.775833607,277.373291,
4.777499676,276.7452393,
4.779166698,278.2012634,
4.780833244,278.5361938,
4.782500267,278.4335632,
4.784166813,276.5744019,
4.785833359,277.2224731,
4.787499905,276.7129517,
4.789166927,278.5294189,
4.790833473,277.1191711,
4.792500496,278.0266418,
4.794166565,277.6381531,
4.795833111,277.699707,
4.797500134,278.8002014,
4.799166679,276.4325256,
4.800833702,278.3018188,
4.802499771,278.9756775,
4.804166794,278.9766846,
4.80583334,278.4407959,
4.807500362,278.8734436,
4.809166908,278.4745178,
4.810833454,276.2998352,
4.8125,280.0446167,
4.814166546,279.4723206,
4.815833569,277.9677124,
4.817500114,276.6883545,
4.81916666,277.6514893,
4.820833206,278.5863037,
4.822500229,279.107666,
4.824166775,276.2943115,
4.825833797,276.6233826,
4.827499866,278.0382996,
4.829166889,277.3888855,
4.830833435,277.0120544,
4.832499981,277.4550171,
4.834167004,277.9074402,
4.835833073,278.6557617,
4.837500095,276.98172,
4.839166641,277.4033813,
4.840833664,276.5483093,
4.84250021,276.5817261,
4.844166756,278.0972595,
4.845833302,279.1123047,
4.847500324,281.0305176,
4.84916687,277.8898926,
4.850833416,278.1029358,
4.852499962,278.7745667,
4.854166508,278.1561584,
4.85583353,278.4924316,
4.857500076,276.9299316,
4.859167099,278.6847839,
4.860833168,277.0264893,
4.862500191,277.1499329,
4.864166737,277.7600098,
4.865833759,277.0071411,
4.867500305,277.6963806,
4.869166374,275.8814697,
4.870833397,276.9178162,
4.872499943,276.4564819,
4.874166965,277.9065247,
4.875833511,279.1882019,
4.877500057,276.9034119,
4.879166603,276.5387573,
4.880833626,277.708252,
4.882500172,276.4231567,
4.884167194,277.0446472,
4.885833263,275.9144287,
4.887499809,277.3853149,
4.889166832,277.2497253,
4.890833378,279.8197021,
4.892500401,275.1281433,
4.89416647,277.1628418,
4.895833492,279.1653748,
4.897500038,277.43927,
4.899167061,277.769989,
4.900833607,277.7470093,
4.902499676,277.4416504,
4.904166698,276.534729,
4.905833244,276.6430969,
4.907500267,276.2714539,
4.909166813,277.7552795,
4.910833359,276.959198,
4.912499905,277.4790955,
4.914166927,276.9615173,
4.915833473,276.3617554,
4.917500496,277.8713074,
4.919166565,278.4578857,
4.920833111,277.4927368,
4.922500134,277.1319885,
4.924166679,277.5691223,
4.925833702,277.4408569,
4.927499771,275.1311646,
4.929166794,275.7912292,
4.93083334,276.5569458,
4.932500362,277.8208618,
4.934166908,277.5078125,
4.935833454,279.3565369,
4.9375,276.6321716,
4.939166546,277.4022217,
4.940833569,276.2756653,
4.942500114,276.5310059,
4.94416666,276.01828,
4.945833206,275.3434448,
4.947500229,277.3353271,
4.949166775,278.493866,
4.950833797,277.5013428,
4.952499866,277.1121521,
4.954166889,276.4300232,
4.955833435,276.7368774,
4.957499981,276.7488098,
4.959167004,276.31427,
4.960833073,276.8337708,
4.962500095,277.7077332,
4.964166641,276.3010864,
4.965833664,276.4199524,
4.96750021,277.3396912,
4.969166756,276.5238037,
4.970833302,277.2920532,
4.972500324,278.0099792,
4.97416687,277.9640808,
4.975833416,278.0420532,
4.977499962,276.5162048,
4.979166508,277.0411682,
4.98083353,276.6407776,
4.982500076,278.1529236,
4.984167099,275.9578552,
4.985833168,276.1162109,
4.987500191,275.3699646,
4.989166737,276.8669434,
4.990833759,277.8085938,
4.992500305,276.7099915,
4.994166374,278.4943848,
4.995833397,277.9203491,
4.997499943,277.598877,
4.999166965,277.2774353,
5.000833511,275.9427795,
5.002500057,273.7798157,
5.004166603,275.3539124,
5.005833626,277.3791809,
5.007500172,276.7186279,
5.009167194,278.1292419,
5.010833263,275.4632568,
5.012499809,276.6916504,
5.014166832,277.2795715,
5.015833378,276.3504333,
5.017500401,276.5274963,
5.01916647,277.4137268,
5.020833492,276.8067017,
5.022500038,277.3873596,
5.024167061,275.487915,
5.025833607,275.8628845,
5.027499676,278.2856445,
5.029166698,276.7563477,
5.030833244,277.4352722,
5.032500267,276.9977417,
5.034166813,277.7758484,
5.035833359,275.9657898,
5.037499905,277.7670288,
5.039166927,277.0887146,
5.040833473,276.4550781,
5.042500496,276.1865234,
5.044166565,277.5300293,
5.045833111,276.3434753,
5.047500134,277.8696899,
5.049166679,277.1009216,
5.050833702,277.6066895,
5.052499771,276.1607056,
5.054166794,274.3097229,
5.05583334,276.4122314,
5.057500362,277.7492981,
5.059166908,276.2910156,
5.060833454,277.9856873,
5.0625,276.7952271,
5.064166546,276.2818909,
5.065833569,276.9381409,
5.067500114,277.2835083,
5.06916666,276.193512,
5.070833206,277.4125061,
5.072500229,276.0595093,
5.074166775,276.1824646,
5.075833797,277.9814148,
5.077499866,276.6712952,
5.079166889,276.7911987,
5.080833435,276.6257324,
5.082499981,275.3757324,
5.084167004,277.7615051,
5.085833073,276.6456909,
5.087500095,277.0066223,
5.089166641,275.4908447,
5.090833664,278.7236328,
5.09250021,276.4904175,
5.094166756,276.3626099,
5.095833302,276.4927063,
5.097500324,275.0857849,
5.09916687,276.3108521,
5.100833416,274.6760559,
5.102499962,277.5308838,
5.104166508,277.9684448,
5.10583353,277.679718,
5.107500076,277.1523438,
5.109167099,275.5740051,
5.110833168,277.2858887,
5.112500191,275.8824463,
5.114166737,276.3848572,
5.115833759,276.1145935,
5.117500305,276.6016846,
5.119166374,277.4958801,
5.120833397,277.6552429,
5.122499943,276.994873,
5.124166965,276.3460083,
5.125833511,276.8618164,
5.127500057,275.8178711,
5.129166603,275.5014343,
5.130833626,274.9126587,
5.132500172,277.3240967,
5.134167194,275.8339844,
5.135833263,277.643219,
5.137499809,277.0296021,
5.139166832,276.4447937,
5.140833378,274.7679138,
5.142500401,274.2504272,
5.14416647,276.8616028,
5.145833492,276.7487793,
5.147500038,275.6460266,
5.149167061,276.3922119,
5.150833607,276.8917542,
5.152499676,275.3552551,
5.154166698,277.4321594,
5.155833244,275.890686,
5.157500267,275.8360291,
5.159166813,279.3982849,
5.160833359,276.2811584,
5.162499905,277.0721741,
5.164166927,276.6748352,
5.165833473,274.4598389,
5.167500496,277.0698547,
5.169166565,276.212677,
5.170833111,274.0406189,
5.172500134,275.9573364,
5.174166679,277.1098938,
5.175833702,275.8800659,
5.177499771,275.8392944,
5.179166794,275.1457825,
5.18083334,277.3063354,
5.182500362,276.5406799,
5.184166908,278.0831604,
5.185833454,276.6523132,
5.1875,276.1069031,
5.189166546,278.2522888,
5.190833569,276.7459106,
5.192500114,276.0991211,
5.19416666,275.6294556,
5.195833206,274.9689026,
5.197500229,274.7914429,
5.199166775,275.3916321,
5.200833797,275.1526794,
5.202499866,276.0023804,
5.204166889,276.9902954,
5.205833435,276.2957153,
5.207499981,276.625946,
5.209167004,275.7526245,
5.210833073,275.815979,
5.212500095,277.0641174,
5.214166641,274.6994019,
5.215833664,277.0552673,
5.21750021,275.9468689,
5.219166756,275.3087463,
5.220833302,277.4364929,
5.222500324,276.1826477,
5.22416687,276.0637512,
5.225833416,276.8583374,
5.227499962,276.8582153,
5.229166508,275.2647705,
5.23083353,277.0379944,
5.232500076,274.9729004,
5.234167099,276.0822754,
5.235833168,275.2950134,
5.237500191,274.9519348,
5.239166737,275.7142334,
5.240833759,276.2578735,
5.242500305,274.8626099,
5.244166374,275.5688477,
5.245833397,276.0454102,
5.247499943,275.1405029,
5.249166965,275.0466614,
5.250833511,276.559967,
5.252500057,275.8701477,
5.254166603,275.8712463,
5.255833626,275.2749329,
5.257500172,276.3871765,
5.259167194,275.7901001,
5.260833263,274.7339478,
5.262499809,275.0924072,
5.264166832,275.4862061,
5.265833378,275.8998108,
5.267500401,276.135498,
5.26916647,274.6632385,
5.270833492,275.8215942,
5.272500038,277.3343811,
5.274167061,275.0137024,
5.275833607,276.2520752,
5.277499676,276.9493408,
5.279166698,276.3414001,
5.280833244,276.7463989,
5.282500267,275.2619019,
5.284166813,276.5591736,
5.285833359,275.9420776,
5.287499905,275.4275513,
5.289166927,275.7548828,
5.290833473,275.0398865,
5.292500496,276.4360962,
5.294166565,276.0211792,
5.295833111,275.0072937,
5.297500134,274.6612854,
5.299166679,276.242157,
5.300833702,276.0011292,
5.302499771,274.1352539,
5.304166794,276.4090271,
5.30583334,277.2877197,
5.307500362,276.0901794,
5.309166908,275.6165466,
5.310833454,276.940094,
5.3125,275.0827637,
5.314166546,273.8095093,
5.315833569,276.1265869,
5.317500114,276.1112671,
5.31916666,276.8296204,
5.320833206,275.4450378,
5.322500229,275.3535156,
5.324166775,277.1417847,
5.325833797,275.3631897,
5.327499866,274.1201782,
5.329166889,275.2107849,
5.330833435,276.6683044,
5.332499981,274.7445374,
5.334167004,276.5080261,
5.335833073,276.4098511,
5.337500095,274.9415588,
5.339166641,275.5697327,
5.340833664,274.6329956,
5.34250021,275.1776428,
5.344166756,275.000885,
5.345833302,275.6996765,
5.347500324,272.8103638,
5.34916687,276.7369385,
5.350833416,276.5662842,
5.352499962,276.5691223,
5.354166508,273.9901123,
5.35583353,274.717926,
5.357500076,277.6744995,
5.359167099,276.2177124,
5.360833168,274.9604797,
5.362500191,275.0786743,
5.364166737,276.0733337,
5.365833759,276.0495605,
5.367500305,275.5511169,
5.369166374,274.1043091,
5.370833397,275.3710632,
5.372499943,275.9291077,
5.374166965,277.0895996,
5.375833511,275.8680115,
5.377500057,273.2309875,
5.379166603,274.7046509,
5.380833626,275.3734131,
5.382500172,275.5745544,
5.384167194,274.8301086,
5.385833263,275.936615,
5.387499809,276.700531,
5.389166832,274.9755554,
5.390833378,275.5727234,
5.392500401,275.1808777,
5.39416647,274.8885498,
5.395833492,275.1012573,
5.397500038,275.5630188,
5.399167061,276.0569458,
5.400833607,274.8261414,
5.402499676,275.5906982,
5.404166698,276.3267212,
5.405833244,275.992157,
5.407500267,275.9346924,
5.409166813,276.0052185,
5.410833359,274.7154846,
5.412499905,274.5698242,
5.414166927,274.2727356,
5.415833473,273.3218079,
5.417500496,275.0743713,
5.419166565,276.3283997,
5.420833111,276.2253113,
5.422500134,276.2539368,
5.424166679,272.3762207,
5.425833702,274.8331604,
5.427499771,276.0343018,
5.429166794,274.0499268,
5.43083334,274.6773071,
5.432500362,274.4272461,
5.434166908,274.6192932,
5.435833454,274.3286133,
5.4375,275.2084351,
5.439166546,273.9210815,
5.440833569,274.5972595,
5.442500114,275.1694336,
5.44416666,275.2122803,
5.445833206,275.5491638,
5.447500229,274.6763306,
5.449166775,276.2878723,
5.450833797,274.9956665,
5.452499866,275.2857666,
5.454166889,274.6519775,
5.455833435,274.6129456,
5.457499981,275.8641052,
5.459167004,274.6072388,
5.460833073,275.9425354,
5.462500095,275.8243713,
5.464166641,274.855896,
5.465833664,275.2908936,
5.46750021,276.1139221,
5.469166756,275.8803101,
5.470833302,276.4363403,
5.472500324,275.6633301,
5.47416687,275.6128845,
5.475833416,273.8609924,
5.477499962,273.8296509,
5.479166508,276.3513489,
5.48083353,275.5821533,
5.482500076,275.1499329,
5.484167099,276.3215637,
5.485833168,274.0920715,
5.487500191,276.3779907,
5.489166737,274.2431335,
5.490833759,274.6836548,
5.492500305,273.747467,
5.494166374,275.5039368,
5.495833397,275.0808411,
5.497499943,276.0590515,
5.499166965,274.8072815,
5.500833511,276.1011353,
5.502500057,275.056427,
5.504166603,275.9431152,
5.505833626,276.5671082,
5.507500172,273.7750549,
5.509167194,274.9408264,
5.510833263,273.9150696,
5.512499809,274.9080811,
5.514166832,274.2000122,
5.515833378,275.5809631,
5.517500401,275.8841858,
5.51916647,275.6934814,
5.520833492,274.6412964,
5.522500038,274.190094,
5.524167061,275.2578735,
5.525833607,277.0411987,
5.527499676,275.7400818,
5.529166698,274.6918335,
5.530833244,275.0319519,
5.532500267,273.2684021,
5.534166813,275.4043884,
5.535833359,274.6401672,
5.537499905,274.6794128,
5.539166927,276.0448303,
5.540833473,275.5141296,
5.542500496,274.7859802,
5.544166565,275.4528503,
5.545833111,273.7752075,
5.547500134,275.4861755,
5.549166679,274.153717,
5.550833702,275.1425781,
5.552499771,275.4336853,
5.554166794,273.9376831,
5.55583334,274.9731445,
5.557500362,273.5889282,
5.559166908,275.0629272,
5.560833454,274.1372681,
5.5625,274.3272095,
5.564166546,275.7674561,
5.565833569,274.23526,
5.567500114,274.9141235,
5.56916666,274.8110657,
5.570833206,274.9117126,
5.572500229,273.723877,
5.574166775,275.0219116,
5.575833797,273.8535767,
5.577499866,276.4352722,
5.579166889,274.3302917,
5.580833435,274.1080933,
5.582499981,274.9512329,
5.584167004,273.8805542,
5.585833073,274.4945374,
5.587500095,274.6127319,
5.589166641,276.1882935,
5.590833664,274.700592,
5.59250021,273.1042175,
5.594166756,275.0463867,
5.595833302,274.3070374,
5.597500324,275.8470459,
5.59916687,274.6863403,
5.600833416,275.4446716,
5.602499962,274.2931824,
5.604166508,274.2583008,
5.60583353,274.7024536,
5.607500076,274.1358643,
5.609167099,273.5092163,
5.610833168,275.9964905,
5.612500191,275.2230835,
5.614166737,274.8825073,
5.615833759,274.2927856,
5.617500305,273.3292542,
5.619166374,274.3930664,
5.620833397,273.627594,
5.622499943,272.9096375,
5.624166965,275.2218018,
5.625833511,274.7816772,
5.627500057,274.0416565,
5.629166603,273.8697815,
5.630833626,275.1647034,
5.632500172,274.8596802,
5.634167194,275.0740967,
5.635833263,274.6104126,
5.637499809,275.5861816,
5.639166832,275.3017578,
5.640833378,273.5622253,
5.642500401,274.9074707,
5.64416647,274.8445129,
5.645833492,274.9066467,
5.647500038,276.1327209,
5.649167061,275.7078552,
5.650833607,274.2045288,
5.652499676,274.0823364,
5.654166698,274.4494629,
5.655833244,274.2239075,
5.657500267,275.2598877,
5.659166813,274.1069031,
5.660833359,273.9518738,
5.662499905,275.3771667,
5.664166927,273.8808289,
5.665833473,277.0156555,
5.667500496,274.5675659,
5.669166565,275.9594727,
5.670833111,274.5133667,
5.672500134,275.6841736,
5.674166679,274.6121216,
5.675833702,274.0377808,
5.677499771,273.1854858,
5.679166794,274.9039612,
5.68083334,270.8051453,
5.682500362,273.6935425,
5.684166908,275.0073853,
5.685833454,273.2290955,
5.6875,272.547699,
5.689166546,275.2567749,
5.690833569,275.5272217,
5.692500114,274.7444153,
5.69416666,275.6743469,
5.695833206,275.4427185,
5.697500229,273.0698547,
5.699166775,274.4454956,
5.700833797,275.0212708,
5.702499866,276.4960938,
5.704166889,273.9077148,
5.705833435,274.354187,
5.707499981,274.6147766,
5.709167004,274.6366577,
5.710833073,274.4316406,
5.712500095,272.8705139,
5.714166641,275.9397583,
5.715833664,276.0447998,
5.71750021,275.8822937,
5.719166756,272.6478271,
5.720833302,274.2369385,
5.722500324,275.6104126,
5.72416687,273.5733948,
5.725833416,273.5426025,
5.727499962,275.2805481,
5.729166508,274.0776367,
5.73083353,273.8180542,
5.732500076,273.3887024,
5.734167099,275.224884,
5.735833168,274.650238,
5.737500191,273.4226685,
5.739166737,274.7675476,
5.740833759,273.9580688,
5.742500305,274.3499756,
5.744166374,274.1532288,
5.745833397,275.1885681,
5.747499943,273.2168884,
5.749166965,275.3316345,
5.750833511,274.2277222,
5.752500057,275.0055237,
5.754166603,274.8502197,
5.755833626,273.9944458,
5.757500172,275.6062927,
5.759167194,274.9708252,
5.760833263,273.8675842,
5.762499809,274.4807739,
5.764166832,273.1089478,
5.765833378,275.5891724,
5.767500401,274.5525208,
5.76916647,272.2962646,
5.770833492,275.1508484,
5.772500038,274.2190857,
5.774167061,273.5352783,
5.775833607,275.318634,
5.777499676,275.911438,
5.779166698,276.2467041,
5.780833244,274.7218628,
5.782500267,274.6629028,
5.784166813,274.5109863,
5.785833359,274.627594,
5.787499905,274.8061829,
5.789166927,273.8109131,
5.790833473,273.4358826,
5.792500496,275.2506714,
5.794166565,272.5027771,
5.795833111,273.9329834,
5.797500134,275.844574,
5.799166679,274.2742004,
5.800833702,272.8836975,
5.802499771,274.6523438,
5.804166794,274.6766663,
5.80583334,274.3410034,
5.807500362,275.2465515,
5.809166908,273.8907776,
5.810833454,273.9903259,
5.8125,273.4522705,
5.814166546,274.027832,
5.815833569,273.8726196,
5.817500114,274.9787903,
5.81916666,273.2033386,
5.820833206,272.2709961,
5.822500229,273.769989,
5.824166775,274.0907288,
5.825833797,273.341095,
5.827499866,273.9861145,
5.829166889,275.3079834,
5.830833435,274.4560852,
5.832499981,274.8450623,
5.834167004,276.052124,
5.835833073,274.5939331,
5.837500095,274.1773376,
5.839166641,275.1669312,
5.840833664,273.1668091,
5.84250021,273.486969,
5.844166756,275.0544434,
5.845833302,272.2214966,
5.847500324,273.7662659,
5.84916687,274.2481995,
5.850833416,275.3470764,
5.852499962,274.000061,
5.854166508,273.5868835,
5.85583353,274.2468567,
5.857500076,274.4941406,
5.859167099,275.558075,
5.860833168,273.5159302,
5.862500191,274.1430664,
5.864166737,273.9419861,
5.865833759,274.2740784,
5.867500305,273.8826294,
5.869166374,272.4136963,
5.870833397,275.0310974,
5.872499943,273.8056946,
5.874166965,273.5502014,
5.875833511,273.8698425,
5.877500057,274.0668335,
5.879166603,275.3607788,
5.880833626,272.087738,
5.882500172,275.1907654,
5.884167194,273.8545532,
5.885833263,274.3091736,
5.887499809,273.9772339,
5.889166832,274.7705078,
5.890833378,274.3802795,
5.892500401,273.5765381,
5.89416647,273.6905212,
5.895833492,274.6194153,
5.897500038,271.3450012,
5.899167061,274.6715698,
5.900833607,273.1088867,
5.902499676,273.6004639,
5.904166698,274.93573,
5.905833244,272.8009949,
5.907500267,273.8332825,
5.909166813,274.3182373,
5.910833359,272.2704163,
5.912499905,273.6731262,
5.914166927,272.9596558,
5.915833473,275.3295288,
5.917500496,273.6260071,
5.919166565,273.5019226,
5.920833111,273.5192566,
5.922500134,273.2735291,
5.924166679,274.4744568,
5.925833702,274.2313232,
5.927499771,275.5629578,
5.929166794,273.0284424,
5.93083334,272.7754517,
5.932500362,274.8025513,
5.934166908,274.7158508,
5.935833454,274.3802795,
5.9375,273.440979,
5.939166546,274.6252747,
5.940833569,272.2348328,
5.942500114,273.2831421,
5.94416666,273.3183594,
5.945833206,274.4465942,
5.947500229,273.1297607,
5.949166775,275.3360596,
5.950833797,274.8486023,
5.952499866,274.447876,
5.954166889,277.227417,
5.955833435,272.6381836,
5.957499981,274.7328186,
5.959167004,274.6343689,
5.960833073,272.0906372,
5.962500095,274.9252625,
5.964166641,273.7296143,
5.965833664,274.8531799,
5.96750021,274.1197205,
5.969166756,273.2333679,
5.970833302,272.986145,
5.972500324,273.334137,
5.97416687,272.7783508,
5.975833416,274.1087341,
5.977499962,273.696167,
5.979166508,273.0078125,
5.98083353,274.1326904,
5.982500076,273.1059265,
5.984167099,272.7775574,
5.985833168,272.5461731,
5.987500191,273.7913208,
5.989166737,274.9806824,
5.990833759,273.9929504,
5.992500305,273.691925,
5.994166374,273.7432251,
5.995833397,274.335083,
5.997499943,272.9813232,
5.999166965,275.0384521,
6.000833511,275.6832886,
6.002500057,274.8250122,
6.004166603,274.4686584,
6.005833626,273.2905579,
6.007500172,274.2995911,
6.009167194,272.947113,
6.010833263,273.9664307,
6.012499809,272.3364563,
6.014166832,274.4709473,
6.015833378,273.6137085,
6.017500401,272.8320313,
6.01916647,273.6665039,
6.020833492,273.3473511,
6.022500038,273.7440796,
6.024167061,273.1412659,
6.025833607,273.3510132,
6.027499676,275.2698364,
6.029166698,275.0335083,
6.030833244,274.5251465,
6.032500267,272.8951721,
6.034166813,273.5640564,
6.035833359,275.3449707,
6.037499905,274.1193542,
6.039166927,271.1089478,
6.040833473,272.8989868,
6.042500496,274.1357727,
6.044166565,272.1907349,
6.045833111,273.0145569,
6.047500134,273.395813,
6.049166679,273.6396179,
6.050833702,271.5406189,
6.052499771,272.1397705,
6.054166794,272.869751,
6.05583334,274.9006042,
6.057500362,274.6989746,
6.059166908,274.5476074,
6.060833454,274.7384033,
6.0625,274.704895,
6.064166546,272.0899658,
6.065833569,274.4526062,
6.067500114,271.3677368,
6.06916666,272.9737854,
6.070833206,273.4912415,
6.072500229,273.7925415,
6.074166775,274.0271301,
6.075833797,272.0627747,
6.077499866,273.3578796,
6.079166889,272.48526,
6.080833435,272.7514343,
6.082499981,273.4588623,
6.084167004,273.5223694,
6.085833073,272.8884277,
6.087500095,272.9137573,
6.089166641,273.7739868,
6.090833664,273.1906433,
6.09250021,272.7924194,
6.094166756,272.8754272,
6.095833302,273.1256409,
6.097500324,274.3283386,
6.09916687,272.5228882,
6.100833416,270.1749573,
6.102499962,274.8280029,
6.104166508,271.8347778,
6.10583353,275.7799988,
6.107500076,272.8742065,
6.109167099,272.1647034,
6.110833168,272.0257874,
6.112500191,273.6540527,
6.114166737,273.1604004,
6.115833759,272.3387146,
6.117500305,273.5335083,
6.119166374,273.1079712,
6.120833397,273.8745117,
6.122499943,272.8184204,
6.124166965,272.8920593,
6.125833511,273.5428467,
6.127500057,273.5969849,
6.129166603,273.0487671,
6.130833626,272.7497559,
6.132500172,272.57901,
6.134167194,273.9262695,
6.135833263,272.8089905,
6.137499809,272.2365417,
6.139166832,272.0487061,
6.140833378,272.681488,
6.142500401,274.8482971,
6.14416647,272.5600586,
6.145833492,271.2318115,
6.147500038,272.8058167,
6.149167061,273.8193054,
6.150833607,271.9940796,
6.152499676,273.8757935,
6.154166698,274.6925964,
6.155833244,273.1482239,
6.157500267,274.0806885,
6.159166813,274.0976563,
6.160833359,272.7781982,
6.162499905,273.3605347,
6.164166927,272.7023315,
6.165833473,273.6165771,
6.167500496,273.7672119,
6.169166565,272.3535461,
6.170833111,273.7039795,

