1,,
Time (min),Intensity (a.u.),
0.0008333333535,354.6828918,
0.002500000177,354.760437,
0.004166666884,353.7451172,
0.005833333358,356.5233765,
0.007500000298,355.9115601,
0.009166667238,354.6860352,
0.01083333418,355.5789185,
0.01250000019,355.3974915,
0.01416666713,356.514679,
0.01583333313,355.5048523,
0.01750000194,356.1711121,
0.01916666701,356.2729797,
0.02083333395,357.2687378,
0.02250000089,356.0005188,
0.02416666783,355.4574585,
0.02583333477,354.4978943,
0.02749999985,353.7843323,
0.02916666679,355.3223267,
0.03083333373,357.0342407,
0.03250000253,356.6676025,
0.03416666761,355.9646912,
0.03583333641,356.7516479,
0.03750000149,354.3536987,
0.03916667029,353.6453857,
0.04083333537,356.2892456,
0.04250000045,356.4722595,
0.04416666925,355.1900024,
0.04583333433,356.8720093,
0.04750000313,354.3468933,
0.04916666821,352.946167,
0.05083333328,355.9187012,
0.05250000209,355.6733704,
0.05416666716,358.3961792,
0.05583333597,354.8332825,
0.05750000104,356.0745544,
0.05916666612,355.9302979,
0.06083333492,358.1764526,
0.0625,358.7107239,
0.06416667253,356.335083,
0.0658333376,357.3836365,
0.06750000268,356.714325,
0.06916666776,356.1610718,
0.07083333284,357.4777832,
0.07249999791,360.3319702,
0.07416667044,357.3460999,
0.07583333552,357.3936768,
0.0775000006,357.5905151,
0.07916666567,357.1848755,
0.08083333075,358.776947,
0.08250000328,360.1975403,
0.08416666836,356.9560242,
0.08583333343,361.1245422,
0.08749999851,359.1826782,
0.08916666359,362.7819824,
0.09083333611,358.6969604,
0.09250000119,359.2473755,
0.09416666627,356.0830688,
0.09583333135,359.2829285,
0.09749999642,359.2876892,
0.09916666895,359.9117432,
0.100833334,365.0286255,
0.1024999991,357.073761,
0.1041666642,358.7692871,
0.1058333293,360.1184387,
0.1075000018,363.4517822,
0.1091666669,357.8329773,
0.1108333319,360.1039734,
0.112499997,358.9082642,
0.1141666621,360.9906311,
0.1158333346,358.6894226,
0.1174999997,357.8149414,
0.1191666648,360.6957397,
0.1208333299,360.4349365,
0.1224999949,356.6436157,
0.1241666749,364.0508118,
0.1258333325,362.724762,
0.1274999976,359.4176025,
0.1291666627,363.1700134,
0.1308333278,359.2944031,
0.1325000077,362.0357971,
0.1341666728,363.7058411,
0.1358333379,360.9389954,
0.137500003,365.8856812,
0.1391666681,359.9585571,
0.1408333331,358.5619507,
0.1424999982,361.4068909,
0.1441666782,358.4051819,
0.1458333284,363.1580505,
0.1475000083,358.4280396,
0.1491666585,358.400116,
0.1508333385,365.5366211,
0.1525000036,358.2007751,
0.1541666687,356.5571899,
0.1558333337,360,
0.1574999988,358.0267639,
0.1591666639,358.3175964,
0.1608333439,362.4650574,
0.162499994,359.9133606,
0.164166674,357.2092896,
0.1658333242,360.6528625,
0.1675000042,353.7160339,
0.1691666692,356.4095459,
0.1708333343,356.1532898,
0.1724999994,356.1173096,
0.1741666645,355.3951111,
0.1758333296,358.2254639,
0.1775000095,358.9417114,
0.1791666597,360.1116638,
0.1808333397,360.1485291,
0.1824999899,358.6636658,
0.1841666698,359.4316711,
0.1858333498,358.1939392,
0.1875,360.6247559,
0.18916668,357.0900879,
0.1908333302,361.125824,
0.1925000101,364.6077271,
0.1941666752,355.850708,
0.1958333403,358.4727478,
0.1975000054,358.10849,
0.1991666704,359.555481,
0.2008333355,358.3891602,
0.2025000155,360.4886169,
0.2041666657,357.1867065,
0.2058333457,360.0457153,
0.2074999958,360.8347473,
0.2091666758,357.0484314,
0.2108333409,357.4765015,
0.212500006,356.7664185,
0.214166671,356.746521,
0.2158333361,360.7784424,
0.2175000012,356.4475098,
0.2191666812,359.7807007,
0.2208333313,358.2263184,
0.2225000113,357.7745361,
0.2241666615,356.716095,
0.2258333415,358.9070435,
0.2275000066,355.6390686,
0.2291666716,359.275116,
0.2308333367,357.8155823,
0.2325000018,356.4236145,
0.2341666669,357.699707,
0.2358333468,355.2272339,
0.237499997,355.2562561,
0.239166677,357.4566345,
0.2408333272,353.9681702,
0.2425000072,358.6490479,
0.2441666722,355.5783081,
0.2458333373,355.480835,
0.2475000024,354.7207642,
0.2491666675,356.2893372,
0.2508333325,356.0320435,
0.2524999976,354.5128784,
0.2541666627,355.4274597,
0.2558333278,355.8269348,
0.2574999928,356.720459,
0.2591666579,358.8349915,
0.2608333528,358.3842468,
0.2624999881,357.2277222,
0.264166683,357.7734375,
0.2658333182,357.577301,
0.2675000131,356.5420227,
0.2691666484,357.0802002,
0.2708333433,356.7919312,
0.2725000083,356.8479004,
0.2741666734,357.9784546,
0.2758333385,354.4856262,
0.2775000036,356.7336121,
0.2791666687,357.8526611,
0.2808333337,358.6802063,
0.2824999988,354.3156433,
0.2841666937,354.3868103,
0.285833329,355.8399963,
0.287499994,355.103241,
0.2891666591,359.104248,
0.290833354,356.5340881,
0.2925000191,356.2684937,
0.2941666543,354.7237244,
0.2958333194,353.9788818,
0.2975000143,357.3071289,
0.2991666794,354.3133545,
0.3008333445,356.5375061,
0.3024999797,355.0734863,
0.3041666746,356.3508911,
0.3058333397,359.5381165,
0.3075000048,360.3273315,
0.3091666996,355.3118286,
0.3108333349,358.6306763,
0.3125,357.9755249,
0.3141666651,362.3602295,
0.31583336,354.6824646,
0.317500025,359.6202087,
0.3191666603,357.6286926,
0.3208333254,356.4759827,
0.3225000203,359.3304443,
0.3241666853,355.0688477,
0.3258333504,355.7236328,
0.3274999857,357.2608337,
0.3291666806,355.7487488,
0.3308333457,357.7774658,
0.3325000107,356.4730225,
0.3341666758,353.0419617,
0.3358333409,355.0187683,
0.337500006,354.3692932,
0.339166671,355.4137268,
0.3408333361,354.8840332,
0.342500031,357.9002075,
0.3441666663,355.8083496,
0.3458333313,355.438385,
0.3474999964,362.2130737,
0.3491666913,359.7096863,
0.3508333564,357.3960571,
0.3524999917,364.7953186,
0.3541666567,358.3983154,
0.3558333516,357.2293396,
0.3575000167,359.3645935,
0.3591666818,354.3654175,
0.360833317,358.858551,
0.3625000119,357.0481873,
0.364166677,357.585083,
0.3658333421,357.3818359,
0.3675000072,358.3355713,
0.3691666722,359.883728,
0.3708333373,356.1145325,
0.3725000024,361.1233521,
0.3741666675,358.4260559,
0.3758333623,355.4946289,
0.3774999976,356.6268005,
0.3791666627,356.3940125,
0.3808333278,356.3501587,
0.3825000226,358.7067871,
0.3841666877,355.3041992,
0.385833323,358.3787842,
0.3874999881,355.7892761,
0.389166683,355.5289001,
0.390833348,356.4666748,
0.3925000131,356.5219116,
0.3941666484,358.2653809,
0.3958333433,356.8888245,
0.3975000083,357.0623169,
0.3991666734,356.335907,
0.4008333385,356.1335144,
0.4025000036,352.866394,
0.4041666687,355.136261,
0.4058333337,354.6868896,
0.4074999988,354.0906067,
0.4091666937,354.4789734,
0.410833329,355.5297852,
0.412499994,356.3456116,
0.4141666591,358.1134949,
0.415833354,355.9520569,
0.4175000191,357.9156799,
0.4191666543,357.85849,
0.4208333194,355.8703613,
0.4225000143,357.4631042,
0.4241666794,357.088562,
0.4258333445,357.4954224,
0.4274999797,357.1893616,
0.4291666746,356.6646118,
0.4308333397,359.657196,
0.4325000048,360.0308228,
0.4341666996,358.1332397,
0.4358333349,359.1120911,
0.4375,357.2354431,
0.4391666651,358.2408752,
0.44083336,359.1608887,
0.442500025,359.0647888,
0.4441666603,354.8017578,
0.4458333254,355.6175537,
0.4475000203,362.7963257,
0.4491666853,358.3881226,
0.4508333504,357.7731323,
0.4524999857,355.9589844,
0.4541666806,357.9782104,
0.4558333457,356.0763245,
0.4575000107,354.4872131,
0.4591666758,357.0207825,
0.4608333409,357.3997803,
0.462500006,357.1694946,
0.464166671,355.2135925,
0.4658333361,354.181366,
0.467500031,359.609375,
0.4691666663,352.9825439,
0.4708333313,354.2232666,
0.4724999964,357.9555054,
0.4741666913,354.3482361,
0.4758333564,354.8043518,
0.4774999917,355.5863647,
0.4791666567,355.1959839,
0.4808333516,354.7581482,
0.4825000167,354.9750977,
0.4841666818,352.8675232,
0.485833317,357.6018677,
0.4875000119,355.7514343,
0.489166677,354.2319946,
0.4908333421,355.1419678,
0.4925000072,355.8922119,
0.4941666722,355.8928528,
0.4958333373,355.7711487,
0.4975000024,354.3237,
0.4991666675,356.7807007,
0.5008333325,355.630188,
0.5024999976,356.5678406,
0.5041666627,355.8989563,
0.5058333278,356.2214661,
0.5074999928,357.6473999,
0.5091666579,356.7792358,
0.510833323,358.2845459,
0.5124999881,359.6839294,
0.5141666532,358.6485901,
0.5158333182,356.1524658,
0.5175000429,357.8684082,
0.5191666484,359.1559753,
0.5208333135,359.2012634,
0.5224999785,358.2045288,
0.5241667032,357.0701599,
0.5258333683,361.5023499,
0.5274999738,359.6593323,
0.5291666389,359.7503967,
0.5308333635,355.732605,
0.5325000286,357.6286621,
0.5341666341,357.8905334,
0.5358333588,360.1056519,
0.5375000238,360.5680847,
0.5391666889,354.4064636,
0.540833354,358.7933655,
0.5424999595,358.0274048,
0.5441666842,355.8330688,
0.5458333492,357.6665344,
0.5475000143,358.7993469,
0.5491666794,359.7607422,
0.5508333445,360.3407593,
0.5525000095,356.9085388,
0.5541666746,356.6211853,
0.5558333993,353.7142639,
0.5575000048,357.2150574,
0.5591666698,357.5240479,
0.5608333349,359.2217102,
0.5625,357.7321472,
0.5641667247,358.605896,
0.5658333302,359.9656067,
0.5674999952,357.5340576,
0.5691667199,360.8096313,
0.5708333254,355.444397,
0.5725000501,359.0571899,
0.5741666555,359.4823303,
0.5758333206,360.3883362,
0.5775000453,357.75,
0.5791666508,356.9622498,
0.5808333755,357.6763,
0.5825000405,359.6374512,
0.584166646,357.3227234,
0.5858333707,356.1734924,
0.5874999762,356.9753723,
0.5891667008,357.5484009,
0.5908333659,357.7234192,
0.5924999714,359.1181946,
0.5941666961,354.5780945,
0.5958333611,357.3279724,
0.5975000262,361.2839355,
0.5991666913,356.2365112,
0.6008332968,360.8919983,
0.6025000215,359.071167,
0.6041666865,358.849884,
0.6058333516,357.8059692,
0.6075000167,360.3434143,
0.6091666818,360.168396,
0.6108333468,361.1129456,
0.6125000119,360.7010498,
0.614166677,358.8120117,
0.6158333421,358.217041,
0.6175000072,360.9972229,
0.6191666722,360.3457947,
0.6208333373,356.5404968,
0.622500062,359.6194763,
0.6241666675,362.6574402,
0.6258333325,359.1630859,
0.6274999976,355.7099609,
0.6291666627,361.3691406,
0.6308333874,357.4848633,
0.6324999928,354.6520996,
0.6341666579,357.1090393,
0.6358333826,361.8789978,
0.6374999881,360.1133728,
0.6391667128,360.0647888,
0.6408333182,364.8266602,
0.6424999833,360.1245422,
0.644166708,360.1046143,
0.6458333135,357.2455444,
0.6475000381,361.4645691,
0.6491667032,358.2306824,
0.6508333087,356.9359741,
0.6525000334,357.3659668,
0.6541666389,360.3371582,
0.6558333635,356.9983521,
0.6575000286,363.0591736,
0.6591666341,355.8682251,
0.6608333588,353.5965881,
0.6625000238,359.8054199,
0.6641666889,358.6496582,
0.665833354,360.5646973,
0.6674999595,356.3203125,
0.6691666842,357.8788147,
0.6708333492,356.9128418,
0.6725000143,357.882782,
0.6741666794,357.9063416,
0.6758333445,357.3347778,
0.6775000095,358.4658203,
0.6791666746,358.6178589,
0.6808333993,356.3453979,
0.6825000048,357.9276123,
0.6841666698,356.6045837,
0.6858333349,357.111145,
0.6875,356.1101074,
0.6891667247,354.8764954,
0.6908333302,357.092804,
0.6924999952,356.1792603,
0.6941667199,357.1669312,
0.6958333254,355.5587463,
0.6975000501,356.0809631,
0.6991666555,359.7001038,
0.7008333206,358.7672424,
0.7025000453,357.6083679,
0.7041666508,357.9483948,
0.7058333755,354.8182068,
0.7075000405,356.0291443,
0.709166646,355.3608398,
0.7108333707,359.6269226,
0.7124999762,359.7198792,
0.7141667008,356.2154846,
0.7158333659,356.9078979,
0.7174999714,357.8186035,
0.7191666961,358.8980103,
0.7208333611,360.3701477,
0.7225000262,356.1886292,
0.7241666913,356.7151184,
0.7258332968,359.5307617,
0.7275000215,358.5007935,
0.7291666865,355.4863586,
0.7308333516,358.7695923,
0.7325000167,360.2116699,
0.7341666818,355.7075195,
0.7358333468,355.4811707,
0.7375000119,356.8690796,
0.739166677,360.2167969,
0.7408333421,355.9087219,
0.7425000072,354.8461304,
0.7441666722,354.9082336,
0.7458333373,358.9437561,
0.747500062,357.1290588,
0.7491666675,354.1841736,
0.7508333325,357.4010315,
0.7524999976,356.4648132,
0.7541666627,358.274231,
0.7558333874,358.4952393,
0.7574999928,357.6181335,
0.7591666579,355.9202271,
0.7608333826,356.6123047,
0.7624999881,356.6413879,
0.7641667128,359.6658936,
0.7658333182,359.1427612,
0.7674999833,356.7592468,
0.769166708,357.6852417,
0.7708333135,359.7244263,
0.7725000381,359.0717163,
0.7741667032,357.1397705,
0.7758333087,362.7701721,
0.7775000334,356.3413391,
0.7791666389,358.5067749,
0.7808333635,355.2102051,
0.7825000286,355.5316162,
0.7841666341,357.8210449,
0.7858333588,356.516571,
0.7875000238,358.7918396,
0.7891666889,356.445343,
0.790833354,354.9061279,
0.7924999595,360.3729248,
0.7941666842,357.1468506,
0.7958333492,359.2634277,
0.7975000143,357.6868591,
0.7991666794,355.8904114,
0.8008333445,359.0291138,
0.8025000095,359.1167603,
0.8041666746,357.0940552,
0.8058333993,357.1212463,
0.8075000048,355.0601196,
0.8091666698,356.2019653,
0.8108333349,358.617157,
0.8125,355.2845764,
0.8141667247,356.1414185,
0.8158333302,357.5761719,
0.8174999952,358.8697815,
0.8191667199,359.1621399,
0.8208333254,358.2080383,
0.8225000501,357.0567322,
0.8241666555,356.0542603,
0.8258333206,358.5428772,
0.8275000453,356.7939148,
0.8291666508,358.7104492,
0.8308333755,358.1477661,
0.8325000405,358.4961853,
0.834166646,356.5217285,
0.8358333707,356.2089844,
0.8374999762,357.6867676,
0.8391667008,357.7445374,
0.8408333659,356.3515625,
0.8424999714,360.0591125,
0.8441666961,358.5212708,
0.8458333611,355.3813171,
0.8475000262,356.2228699,
0.8491666913,354.2397156,
0.8508332968,357.0602417,
0.8525000215,356.2268066,
0.8541666865,359.180603,
0.8558333516,357.1776428,
0.8575000167,356.2010498,
0.8591666818,355.6971741,
0.8608333468,354.9069519,
0.8625000119,358.273407,
0.864166677,356.2198486,
0.8658333421,355.2601929,
0.8675000072,358.4472046,
0.8691666722,358.9077148,
0.8708333373,357.7695007,
0.872500062,357.1195679,
0.8741666675,355.755249,
0.8758333325,358.6325378,
0.8774999976,358.5429993,
0.8791666627,359.1516418,
0.8808333874,356.2085571,
0.8824999928,356.29422,
0.8841666579,358.051239,
0.8858333826,361.0820313,
0.8874999881,356.3495483,
0.8891667128,356.8806458,
0.8908333182,356.1027832,
0.8924999833,357.7607422,
0.894166708,357.4077759,
0.8958333135,357.0454102,
0.8975000381,358.2489624,
0.8991667032,357.2902222,
0.9008333087,359.5595093,
0.9025000334,358.5991516,
0.9041666389,356.0222778,
0.9058333635,357.8158264,
0.9075000286,357.9911804,
0.9091666341,359.1531067,
0.9108333588,355.8226624,
0.9125000238,360.8144531,
0.9141666889,357.1947632,
0.915833354,354.9019775,
0.9174999595,355.033905,
0.9191666842,357.207489,
0.9208333492,357.9701843,
0.9225000143,358.1122437,
0.9241666794,356.3114624,
0.9258333445,355.5446777,
0.9275000095,354.9004822,
0.9291666746,355.0905457,
0.9308333993,356.1586914,
0.9325000048,356.3496704,
0.9341666698,357.5135193,
0.9358333349,357.2132568,
0.9375,357.4594421,
0.9391667247,356.6031189,
0.9408333302,360.8514099,
0.9424999952,354.8457642,
0.9441667199,357.75177,
0.9458333254,357.182373,
0.9475000501,355.9895325,
0.9491666555,356.6645813,
0.9508333206,358.9806519,
0.9525000453,357.512146,
0.9541666508,357.7707214,
0.9558333755,356.2229309,
0.9575000405,356.8208313,
0.959166646,356.5821838,
0.9608333707,359.2702026,
0.9624999762,355.3919067,
0.9641667008,356.550415,
0.9658333659,359.7449341,
0.9674999714,359.1553345,
0.9691666961,361.898468,
0.9708333611,355.0101013,
0.9725000262,357.867157,
0.9741666913,355.7529907,
0.9758332968,356.5258789,
0.9775000215,355.7102966,
0.9791666865,356.4257507,
0.9808333516,357.7999573,
0.9825000167,358.1921997,
0.9841666818,357.6977539,
0.9858333468,358.771637,
0.9875000119,356.2223511,
0.989166677,357.4898987,
0.9908333421,359.020752,
0.9925000072,359.4671631,
0.9941666722,357.3179626,
0.9958333373,357.4979553,
0.997500062,355.9446106,
0.9991666675,354.7911682,
1.000833273,354.9454651,
1.002500057,354.9998169,
1.004166722,358.5007629,
1.005833387,355.0574036,
1.007500052,353.7138672,
1.009166598,355.5140686,
1.010833383,352.1607361,
1.012500048,354.7671204,
1.014166713,353.95401,
1.015833378,356.2531738,
1.017500043,355.9170227,
1.019166708,355.1966553,
1.020833373,356.7919617,
1.022500038,358.3227234,
1.024166703,355.7961731,
1.025833368,360.5479126,
1.027500033,354.2250061,
1.029166698,358.8590393,
1.030833364,355.9519348,
1.032500029,356.7955017,
1.034166694,357.5773315,
1.035833359,358.8632202,
1.037500024,360.276947,
1.039166689,357.7348938,
1.040833354,356.8250427,
1.042500019,356.4063416,
1.044166684,358.9350891,
1.045833349,357.2524719,
1.047500014,358.4886169,
1.049166679,357.6368408,
1.050833344,357.3419495,
1.05250001,357.210907,
1.054166675,356.5163269,
1.05583334,358.3024292,
1.057500005,355.635498,
1.05916667,355.1474609,
1.060833335,357.5838318,
1.0625,357.4904175,
1.064166665,359.8057861,
1.06583333,355.3379211,
1.067499995,359.8086243,
1.06916666,356.9613342,
1.070833325,355.8412476,
1.07249999,355.1768188,
1.074166775,356.0475464,
1.07583344,359.1796265,
1.077499986,361.6528625,
1.079166651,358.7535706,
1.080833316,360.2575989,
1.0825001,363.6640625,
1.084166765,357.5839539,
1.085833311,354.1434937,
1.087499976,356.8181458,
1.089166641,357.9983521,
1.090833426,359.4039917,
1.092500091,357.7162781,
1.094166636,358.5559692,
1.095833302,357.8418274,
1.097499967,358.0262146,
1.099166751,359.1332092,
1.100833416,356.8730164,
1.102500081,358.5426636,
1.104166627,357.4516602,
1.105833292,358.0222168,
1.107500076,358.6783752,
1.109166741,355.5565186,
1.110833406,360.710022,
1.112499952,359.6778564,
1.114166617,358.5761414,
1.115833402,356.0472412,
1.117500067,355.6311035,
1.119166732,354.9563293,
1.120833278,358.0109558,
1.122499943,358.192688,
1.124166727,359.1956482,
1.125833392,359.2183838,
1.127500057,357.1681519,
1.129166722,355.9969788,
1.130833268,357.6516418,
1.132500052,356.6071777,
1.134166718,360.91745,
1.135833383,362.5106201,
1.137500048,355.6723938,
1.139166594,358.7684326,
1.140833378,357.5471191,
1.142500043,357.3659363,
1.144166708,357.5892029,
1.145833373,359.0751953,
1.147499919,357.4464417,
1.149166703,357.7301025,
1.150833368,358.6391602,
1.152500033,357.8679504,
1.154166698,357.7645569,
1.155833364,355.0866089,
1.157500029,356.999054,
1.159166694,358.9993591,
1.160833359,357.5891418,
1.162500024,356.1399231,
1.164166689,356.0048523,
1.165833354,355.0230713,
1.167500019,357.0283203,
1.169166684,359.5549927,
1.170833349,356.5747986,
1.172500014,357.4775391,
1.174166799,358.3940125,
1.175833344,355.408783,
1.17750001,354.7810974,
1.179166675,356.18573,
1.18083334,356.7549133,
1.182500124,356.6411133,
1.18416667,358.316925,
1.185833335,354.1731873,
1.1875,355.3339233,
1.189166665,355.9154663,
1.190833449,356.9422913,
1.192499995,355.0404663,
1.19416666,355.6730652,
1.195833325,357.4845886,
1.19749999,354.6791687,
1.199166775,354.8465576,
1.20083344,354.9808044,
1.202499986,358.0926208,
1.204166651,356.188324,
1.205833316,355.4833374,
1.2075001,356.7811584,
1.209166765,358.4754028,
1.210833311,358.6939392,
1.212499976,357.0266113,
1.214166641,354.509613,
1.215833426,357.065918,
1.217500091,355.4550781,
1.219166636,357.9967957,
1.220833302,357.3057556,
1.222499967,357.7569885,
1.224166751,358.3016357,
1.225833416,356.3596497,
1.227500081,357.9557495,
1.229166627,355.3543091,
1.230833292,356.1694031,
1.232500076,359.5707092,
1.234166741,360.0536499,
1.235833406,358.3900146,
1.237499952,355.7990723,
1.239166617,359.7202454,
1.240833402,357.566925,
1.242500067,356.7656555,
1.244166732,357.6334839,
1.245833278,356.8204346,
1.247499943,356.9428711,
1.249166727,359.1843262,
1.250833392,354.5147095,
1.252500057,357.2753906,
1.254166722,357.0823364,
1.255833268,357.3155823,
1.257500052,358.2232971,
1.259166718,356.4878845,
1.260833383,359.82901,
1.262500048,357.0775452,
1.264166594,355.6599121,
1.265833378,357.1965332,
1.267500043,356.7852478,
1.269166708,356.7223206,
1.270833373,355.5280762,
1.272499919,358.1302185,
1.274166703,355.546051,
1.275833368,359.7456665,
1.277500033,356.2475281,
1.279166698,357.0365295,
1.280833364,355.8485413,
1.282500029,356.5635071,
1.284166694,357.3939514,
1.285833359,357.4581604,
1.287500024,356.0354309,
1.289166689,355.3477173,
1.290833354,355.690155,
1.292500019,356.1960144,
1.294166684,356.2550049,
1.295833349,354.5618896,
1.297500014,355.4591064,
1.299166799,359.319458,
1.300833344,357.5721741,
1.30250001,354.9152832,
1.304166675,356.0437012,
1.30583334,356.747406,
1.307500124,356.5274048,
1.30916667,356.1620789,
1.310833335,354.9812317,
1.3125,358.269043,
1.314166665,358.584259,
1.315833449,354.9758606,
1.317499995,356.4422302,
1.31916666,357.0350647,
1.320833325,357.5619812,
1.32249999,358.5906067,
1.324166775,357.8021545,
1.32583344,356.6712036,
1.327499986,357.2997437,
1.329166651,356.0308838,
1.330833316,356.7323608,
1.3325001,357.7543945,
1.334166765,358.3552551,
1.335833311,357.3916931,
1.337499976,356.2897949,
1.339166641,355.6582642,
1.340833426,354.9963989,
1.342500091,356.3461609,
1.344166636,354.3327637,
1.345833302,356.0730591,
1.347499967,354.330658,
1.349166751,357.2715454,
1.350833416,359.0792542,
1.352500081,356.4996033,
1.354166627,355.0916443,
1.355833292,356.1045227,
1.357500076,355.3241272,
1.359166741,354.3657532,
1.360833406,355.4920654,
1.362499952,356.1654358,
1.364166617,356.0466919,
1.365833402,355.2955933,
1.367500067,360.1225891,
1.369166732,356.3380432,
1.370833278,351.7880554,
1.372499943,358.3344421,
1.374166727,356.691803,
1.375833392,357.1297607,
1.377500057,356.0579529,
1.379166722,354.556488,
1.380833268,353.8860779,
1.382500052,357.1335754,
1.384166718,357.0045471,
1.385833383,354.5260315,
1.387500048,355.5819702,
1.389166594,354.9302368,
1.390833378,358.5813293,
1.392500043,357.5320435,
1.394166708,358.8223572,
1.395833373,359.0785217,
1.397499919,355.6794434,
1.399166703,355.3338928,
1.400833368,354.4914551,
1.402500033,354.9578552,
1.404166698,355.4837952,
1.405833364,356.1765747,
1.407500029,355.0914917,
1.409166694,356.4358826,
1.410833359,357.7831726,
1.412500024,353.5140076,
1.414166689,357.5137634,
1.415833354,355.7562561,
1.417500019,357.4708557,
1.419166684,356.0380554,
1.420833349,356.414978,
1.422500014,356.2486267,
1.424166799,356.8557129,
1.425833344,355.5744019,
1.42750001,353.9440002,
1.429166675,357.59729,
1.43083334,356.0604248,
1.432500124,357.4182129,
1.43416667,355.9627686,
1.435833335,355.4801941,
1.4375,354.4298401,
1.439166665,356.9568787,
1.440833449,354.4935303,
1.442499995,353.8208008,
1.44416666,355.2424927,
1.445833325,358.2609558,
1.44749999,357.5280151,
1.449166775,357.6867676,
1.45083344,355.2189331,
1.452499986,357.3490295,
1.454166651,356.8824158,
1.455833316,356.9849854,
1.4575001,355.9439392,
1.459166765,356.1669922,
1.460833311,356.8563538,
1.462499976,358.1904907,
1.464166641,355.5340881,
1.465833426,356.1895447,
1.467500091,357.9806519,
1.469166636,357.2452698,
1.470833302,357.2192078,
1.472499967,361.3934021,
1.474166751,355.7383118,
1.475833416,357.5216064,
1.477500081,358.7785339,
1.479166627,356.6184692,
1.480833292,357.5848083,
1.482500076,356.0831604,
1.484166741,356.7847595,
1.485833406,356.3017883,
1.487499952,356.1290588,
1.489166617,355.4276123,
1.490833402,356.5324097,
1.492500067,358.0354004,
1.494166732,358.0877075,
1.495833278,360.1551819,
1.497499943,354.4515686,
1.499166727,357.4501648,
1.500833392,359.416748,
1.502500057,358.5253296,
1.504166722,357.8655396,
1.505833268,357.4311218,
1.507500052,356.9482422,
1.509166718,355.5204163,
1.510833383,355.6085205,
1.512500048,352.5022888,
1.514166594,306.0680847,
1.515833378,306.8214417,
1.517500043,305.9519653,
1.519166708,311.6069946,
1.520833373,292.7167053,
1.522499919,313.5120239,
1.524166703,337.4678345,
1.525833368,334.7220154,
1.527500033,336.3265991,
1.529166698,336.2859192,
1.530833364,336.7199097,
1.532500029,338.9095459,
1.534166694,335.8545837,
1.535833359,338.092804,
1.537500024,289.5571289,
1.539166689,290.9635925,
1.540833354,298.991394,
1.542500019,291.42276,
1.544166684,323.5581665,
1.545833349,296.0922241,
1.547500014,330.5632935,
1.549166799,300.1863403,
1.550833344,296.3312988,
1.55250001,331.0545959,
1.554166675,287.2289124,
1.55583334,333.3625793,
1.557500124,302.6680603,
1.55916667,327.8057251,
1.560833335,337.8015442,
1.5625,324.1667786,
1.564166665,347.303772,
1.565833449,316.3678284,
1.567499995,322.5411377,
1.56916666,325.3627014,
1.570833325,349.253479,
1.57249999,346.7210083,
1.574166775,346.671051,
1.57583344,346.4559021,
1.577499986,346.5596619,
1.579166651,347.9181519,
1.580833316,346.263031,
1.5825001,344.7326355,
1.584166765,346.2878418,
1.585833311,344.3104858,
1.587499976,345.5393982,
1.589166641,344.4059143,
1.590833426,344.2420044,
1.592500091,343.9764099,
1.594166636,346.9199524,
1.595833302,343.89328,
1.597499967,344.0097961,
1.599166751,347.7978821,
1.600833416,343.5233765,
1.602500081,344.3290405,
1.604166627,344.2983398,
1.605833292,342.3536072,
1.607500076,342.8885193,
1.609166741,341.2603455,
1.610833406,344.9560547,
1.612499952,345.647522,
1.614166617,343.5291138,
1.615833402,343.8391113,
1.617500067,345.3218689,
1.619166732,342.9985962,
1.620833278,344.8399963,
1.622499943,345.6504211,
1.624166727,344.8749695,
1.625833392,341.1616516,
1.627500057,340.6394348,
1.629166722,339.6668701,
1.630833268,343.1635742,
1.632500052,341.6120911,
1.634166718,339.7217712,
1.635833383,342.0448303,
1.637500048,340.0852051,
1.639166594,339.2683716,
1.640833378,341.730072,
1.642500043,340.2364807,
1.644166708,340.5825195,
1.645833373,340.7784729,
1.647499919,338.295105,
1.649166703,341.3838196,
1.650833368,339.3119507,
1.652500033,340.068573,
1.654166698,338.9356079,
1.655833364,339.0555115,
1.657500029,337.3179932,
1.659166694,339.5342102,
1.660833359,339.5364075,
1.662500024,338.7339478,
1.664166689,338.1724854,
1.665833354,340.0302429,
1.667500019,340.7128601,
1.669166684,340.387207,
1.670833349,338.8733826,
1.672500014,338.4784546,
1.674166799,337.6750183,
1.675833344,336.9272156,
1.67750001,336.282959,
1.679166675,336.8123169,
1.68083334,335.2111206,
1.682500124,336.7093811,
1.68416667,336.7184753,
1.685833335,338.1813354,
1.6875,338.0273132,
1.689166665,336.7537537,
1.690833449,336.341156,
1.692499995,337.2742004,
1.69416666,336.7785339,
1.695833325,338.1367798,
1.69749999,337.1665955,
1.699166775,335.9369812,
1.70083344,334.7149048,
1.702499986,337.133606,
1.704166651,335.9624939,
1.705833316,336.1156616,
1.7075001,335.7207947,
1.709166765,337.3909912,
1.710833311,337.4616394,
1.712499976,335.0718079,
1.714166641,335.9442139,
1.715833426,333.7493896,
1.717500091,334.8674622,
1.719166636,335.5282288,
1.720833302,334.3806458,
1.722499967,334.0943909,
1.724166751,336.5410767,
1.725833416,333.1320496,
1.727500081,334.822052,
1.729166627,334.3509216,
1.730833292,333.4657593,
1.732500076,332.6691589,
1.734166741,334.459259,
1.735833406,332.158905,
1.737499952,333.0593262,
1.739166617,331.7456665,
1.740833402,335.5805054,
1.742500067,335.4300537,
1.744166732,332.82901,
1.745833278,332.5499268,
1.747499943,331.0151978,
1.749166727,332.9161072,
1.750833392,332.1417236,
1.752500057,331.4519653,
1.754166722,334.2016602,
1.755833268,332.3360596,
1.757500052,331.1510925,
1.759166718,333.3702393,
1.760833383,333.8008423,
1.762500048,331.7346191,
1.764166594,332.7825623,
1.765833378,332.4276123,
1.767500043,331.3612976,
1.769166708,332.9039001,
1.770833373,330.9917603,
1.772499919,331.3384705,
1.774166703,329.5923157,
1.775833368,333.0075684,
1.777500033,331.4296265,
1.779166698,332.0899353,
1.780833364,331.9455566,
1.782500029,331.783783,
1.784166694,331.1882019,
1.785833359,330.6533813,
1.787500024,330.21698,
1.789166689,331.4059753,
1.790833354,332.338623,
1.792500019,332.4799805,
1.794166684,330.7798767,
1.795833349,331.2626038,
1.797500014,331.2311096,
1.799166799,328.5594482,
1.800833344,330.03302,
1.80250001,329.7940063,
1.804166675,328.1578369,
1.80583334,330.663147,
1.807500124,331.809845,
1.80916667,330.0215759,
1.810833335,331.0209961,
1.8125,330.5439758,
1.814166665,329.3306885,
1.815833449,330.8280334,
1.817499995,330.1962891,
1.81916666,330.9541321,
1.820833325,329.9216003,
1.82249999,333.2444763,
1.824166775,327.7236938,
1.82583344,329.1898193,
1.827499986,328.2263794,
1.829166651,328.6948853,
1.830833316,328.6199341,
1.8325001,330.4142456,
1.834166765,327.7451782,
1.835833311,328.8085327,
1.837499976,327.1013794,
1.839166641,330.90802,
1.840833426,328.528656,
1.842500091,329.4811096,
1.844166636,330.0949707,
1.845833302,330.0866089,
1.847499967,328.4376526,
1.849166751,329.5892029,
1.850833416,327.6520691,
1.852500081,327.0079346,
1.854166627,328.9124451,
1.855833292,328.2433167,
1.857500076,327.0932007,
1.859166741,327.7535706,
1.860833406,326.5975037,
1.862499952,328.6138,
1.864166617,328.2548523,
1.865833402,325.0673218,
1.867500067,325.8502502,
1.869166732,324.2662354,
1.870833278,325.8551941,
1.872499943,326.9201355,
1.874166727,327.7003784,
1.875833392,325.3986206,
1.877500057,327.4760132,
1.879166722,326.2655334,
1.880833268,325.3082581,
1.882500052,323.9671631,
1.884166718,327.2034912,
1.885833383,326.8722229,
1.887500048,326.1311646,
1.889166594,325.6109314,
1.890833378,325.9926758,
1.892500043,326.4058838,
1.894166708,326.5883484,
1.895833373,324.937439,
1.897499919,325.5610962,
1.899166703,324.25,
1.900833368,325.0841064,
1.902500033,325.772583,
1.904166698,322.4928284,
1.905833364,325.1905212,
1.907500029,324.0801392,
1.909166694,324.1107178,
1.910833359,327.1630554,
1.912500024,324.4811401,
1.914166689,324.9812927,
1.915833354,323.4923401,
1.917500019,325.6005249,
1.919166684,323.1986694,
1.920833349,324.8499451,
1.922500014,322.987915,
1.924166799,323.7349243,
1.925833344,324.467041,
1.92750001,325.2130432,
1.929166675,325.5586548,
1.93083334,325.9847717,
1.932500124,324.6546021,
1.93416667,324.0401306,
1.935833335,326.0558777,
1.9375,323.3268738,
1.939166665,323.1544495,
1.940833449,322.7125854,
1.942499995,322.7475891,
1.94416666,320.2962341,
1.945833325,322.9606018,
1.94749999,323.1847229,
1.949166775,323.2226563,
1.95083344,322.5588074,
1.952499986,325.0108337,
1.954166651,325.3650513,
1.955833316,322.9083862,
1.9575001,321.3577576,
1.959166765,322.2634583,
1.960833311,322.7088013,
1.962499976,322.785614,
1.964166641,324.2608032,
1.965833426,321.0906372,
1.967500091,320.0651855,
1.969166636,322.1864319,
1.970833302,323.1005859,
1.972499967,320.8817139,
1.974166751,323.0841675,
1.975833416,320.8287354,
1.977500081,322.9894104,
1.979166627,322.1142883,
1.980833292,323.5201721,
1.982500076,321.6390381,
1.984166741,322.1611633,
1.985833406,321.4499817,
1.987499952,322.3373108,
1.989166617,320.8344421,
1.990833402,323.924469,
1.992500067,321.5154419,
1.994166732,321.9487305,
1.995833278,322.4153442,
1.997499943,322.682312,
1.999166727,321.2350159,
2.000833273,321.1816101,
2.002500057,321.1371155,
2.004166603,321.3666382,
2.005833387,320.461731,
2.007500172,319.5341797,
2.009166718,322.0543518,
2.010833263,320.2661133,
2.012500048,319.5881348,
2.014166594,320.6850281,
2.015833378,324.1595459,
2.017500162,321.7174377,
2.019166708,321.4005432,
2.020833254,321.3217773,
2.022500038,321.6420898,
2.024166822,321.3406067,
2.025833368,321.2858276,
2.027499914,323.3505249,
2.029166698,322.5920715,
2.030833244,319.8296204,
2.032500029,319.1239929,
2.034166813,319.2798767,
2.035833359,320.0716858,
2.037499905,318.8700867,
2.039166689,319.6871643,
2.040833473,319.7027893,
2.042500019,317.2061768,
2.044166803,319.0037842,
2.045833349,321.5940552,
2.047499895,321.6496582,
2.049166679,319.7283936,
2.050833464,320.6116943,
2.05250001,317.7621765,
2.054166555,319.3885498,
2.05583334,322.2114258,
2.057500124,320.2433167,
2.05916667,319.8104858,
2.060833454,320.0440979,
2.0625,320.0590515,
2.064166546,324.9617615,
2.06583333,319.8851013,
2.067500114,320.1570129,
2.06916666,318.3430176,
2.070833445,320.160675,
2.07249999,318.8067017,
2.074166775,318.7558289,
2.075833321,319.53479,
2.077500105,319.426239,
2.079166651,319.019928,
2.080833197,318.5596313,
2.082499981,321.0595093,
2.084166765,319.449646,
2.085833311,318.3479309,
2.087500095,321.5750427,
2.089166641,317.7081299,
2.090833426,319.2080994,
2.092499971,319.8002319,
2.094166756,319.1376343,
2.095833302,324.4355774,
2.097500086,317.4690857,
2.099166632,319.3332825,
2.100833416,318.0108032,
2.102499962,316.7724304,
2.104166746,316.8251038,
2.105833292,319.2249756,
2.107500076,322.1224365,
2.109166622,317.7861023,
2.110833406,318.5128174,
2.112499952,319.1242676,
2.114166737,318.7649536,
2.115833521,317.8752747,
2.117500067,319.6296997,
2.119166613,318.6833191,
2.120833397,318.7189636,
2.122499943,316.9291992,
2.124166727,318.1058044,
2.125833273,317.3746033,
2.127500057,318.5422058,
2.129166603,315.7276001,
2.130833387,318.6275024,
2.132500172,318.1387329,
2.134166718,316.8754883,
2.135833502,319.0361938,
2.137500048,315.7408752,
2.139166832,316.812561,
2.140833378,319.013855,
2.142500162,315.3030701,
2.144166708,317.4187012,
2.145833254,316.9070129,
2.147500038,315.1714478,
2.149166584,317.15448,
2.150833368,316.9092102,
2.152500153,315.868103,
2.154166698,315.7692871,
2.155833483,317.2017212,
2.157500029,317.1246338,
2.159166813,315.3578186,
2.160833597,317.9205017,
2.162499905,317.0834656,
2.164166689,316.8120117,
2.165833235,314.6464844,
2.167500019,315.2263184,
2.169166803,318.0061646,
2.170833349,316.0697327,
2.172500134,314.7728577,
2.174166679,317.4294434,
2.175833464,315.6276855,
2.177500248,318.166687,
2.179166555,314.8106995,
2.18083334,314.7233276,
2.182499886,315.7713928,
2.18416667,315.4949341,
2.185833454,315.9228821,
2.1875,315.3457947,
2.189166784,316.555542,
2.19083333,315.6582336,
2.192500114,313.6820679,
2.194166899,315.9834595,
2.195833445,315.1692505,
2.19749999,316.9012756,
2.199166536,316.3812866,
2.200833321,314.5046387,
2.202500105,316.2054749,
2.204166651,314.6039429,
2.205833435,316.5972595,
2.207499981,316.5757751,
2.209166765,316.6033325,
2.210833549,315.2116089,
2.212500095,315.009491,
2.21416688,315.04422,
2.215833187,314.0435486,
2.217499971,313.2872009,
2.219166756,312.9950562,
2.220833302,312.4144897,
2.222500086,314.0422668,
2.224166632,314.9306335,
2.225833416,314.0041504,
2.2275002,313.756134,
2.229166746,314.8334351,
2.23083353,312.6980591,
2.232499838,312.5984192,
2.234166622,315.0007629,
2.235833406,315.0949402,
2.237499952,313.1747131,
2.239166737,314.4250793,
2.240833282,314.8850098,
2.242500067,312.9458618,
2.244166851,313.8539734,
2.245833397,313.9900818,
2.247500181,314.3376465,
2.249166727,313.6996155,
2.250833273,312.7849121,
2.252500057,313.1212463,
2.254166603,311.8130798,
2.255833387,311.6835022,
2.257499933,314.3174438,
2.259166718,316.4598999,
2.260833502,315.7417297,
2.262500048,314.6733093,
2.264166832,313.4568481,
2.265833378,312.497345,
2.267500162,315.0957947,
2.269166708,315.3329163,
2.270833254,311.9110718,
2.272500038,313.7666626,
2.274166584,312.2383728,
2.275833368,311.8024292,
2.277500153,312.9104004,
2.279166698,313.4477234,
2.280833483,311.3977356,
2.282500029,313.4592896,
2.284166813,311.4142761,
2.285833597,312.8399963,
2.287499905,312.1424866,
2.289166689,312.6650696,
2.290833235,312.3170776,
2.292500019,312.8912048,
2.294166803,311.8718872,
2.295833349,312.5249329,
2.297500134,314.2493286,
2.299166679,311.9376831,
2.300833464,310.9934387,
2.302500248,313.5739441,
2.304166555,312.4468994,
2.30583334,314.683197,
2.307499886,312.9050903,
2.30916667,312.4032593,
2.310833454,311.4467468,
2.3125,314.5189209,
2.314166784,313.183075,
2.31583333,314.7252502,
2.317500114,310.8576965,
2.319166899,311.0021057,
2.320833445,313.065918,
2.32249999,312.6953125,
2.324166536,310.2916565,
2.325833321,311.5270996,
2.327500105,312.40271,
2.329166651,313.7110291,
2.330833435,309.8441467,
2.332499981,313.4809265,
2.334166765,311.2944031,
2.335833549,311.844635,
2.337500095,311.2005005,
2.33916688,311.7584534,
2.340833187,310.658783,
2.342499971,309.2765198,
2.344166756,310.9559631,
2.345833302,312.0219727,
2.347500086,311.159668,
2.349166632,310.1658936,
2.350833416,310.2629395,
2.3525002,312.3998413,
2.354166746,311.194458,
2.35583353,311.4703064,
2.357499838,308.2775574,
2.359166622,312.2089233,
2.360833406,309.6802979,
2.362499952,311.8885803,
2.364166737,310.9663391,
2.365833282,309.9872131,
2.367500067,310.9918518,
2.369166851,311.4772949,
2.370833397,312.8135071,
2.372500181,309.5032349,
2.374166727,310.9569702,
2.375833273,312.0997925,
2.377500057,310.2321777,
2.379166603,310.4418945,
2.380833387,309.2478943,
2.382499933,310.8011169,
2.384166718,310.941864,
2.385833502,310.2606812,
2.387500048,310.5933838,
2.389166832,310.9139404,
2.390833378,311.3887939,
2.392500162,308.8538208,
2.394166708,309.637207,
2.395833254,308.4070435,
2.397500038,310.676239,
2.399166584,310.130127,
2.400833368,310.2327271,
2.402500153,309.5871582,
2.404166698,307.9777222,
2.405833483,310.3638611,
2.407500029,309.5765381,
2.409166813,309.0743713,
2.410833597,309.2549438,
2.412499905,309.7409058,
2.414166689,310.1645508,
2.415833235,309.9438477,
2.417500019,309.6631165,
2.419166803,310.5803223,
2.420833349,308.6046448,
2.422500134,309.0395203,
2.424166679,308.6463013,
2.425833464,310.451416,
2.427500248,309.7445679,
2.429166555,310.5252075,
2.43083334,313.510498,
2.432499886,307.3637695,
2.43416667,309.8540649,
2.435833454,312.0975647,
2.4375,309.9349365,
2.439166784,308.1046143,
2.44083333,311.6123962,
2.442500114,310.6917419,
2.444166899,309.0076294,
2.445833445,310.5013733,
2.44749999,310.5620117,
2.449166536,308.2192383,
2.450833321,309.7581787,
2.452500105,309.0600891,
2.454166651,309.2238159,
2.455833435,308.2633362,
2.457499981,308.90802,
2.459166765,309.6093445,
2.460833549,308.2701416,
2.462500095,307.8542175,
2.46416688,309.7322083,
2.465833187,309.0067749,
2.467499971,309.1453552,
2.469166756,309.8841248,
2.470833302,306.611908,
2.472500086,309.8699951,
2.474166632,310.22995,
2.475833416,308.7723389,
2.4775002,309.2520752,
2.479166746,309.8254089,
2.48083353,311.3880005,
2.482499838,307.4414063,
2.484166622,310.0658264,
2.485833406,309.241272,
2.487499952,308.3730774,
2.489166737,308.3528137,
2.490833282,310.5519714,
2.492500067,309.3031006,
2.494166851,308.0746155,
2.495833397,308.8454895,
2.497500181,308.0605774,
2.499166727,307.8387756,
2.500833273,308.6045227,
2.502500057,308.3503113,
2.504166603,309.2940979,
2.505833387,306.6974792,
2.507499933,310.2965088,
2.509166718,308.0798645,
2.510833502,307.9908752,
2.512500048,306.2764893,
2.514166832,307.6139832,
2.515833378,308.5164185,
2.517500162,308.1343079,
2.519166708,308.9289246,
2.520833254,308.5191345,
2.522500038,308.2097473,
2.524166584,306.5816956,
2.525833368,307.107666,
2.527500153,309.3733521,
2.529166698,308.0391846,
2.530833483,306.4130859,
2.532500029,306.7004089,
2.534166813,308.7191162,
2.535833597,307.4198914,
2.537499905,309.0590515,
2.539166689,309.2915344,
2.540833235,309.0594177,
2.542500019,307.5550232,
2.544166803,307.8217773,
2.545833349,306.8430481,
2.547500134,307.7236633,
2.549166679,308.0620422,
2.550833464,308.5607605,
2.552500248,307.6676941,
2.554166555,305.8096619,
2.55583334,306.3702087,
2.557499886,307.5898438,
2.55916667,307.6169128,
2.560833454,306.5372009,
2.5625,307.2962341,
2.564166784,306.9647522,
2.56583333,307.8027954,
2.567500114,307.8387146,
2.569166899,307.7702942,
2.570833445,307.0618591,
2.57249999,306.6550293,
2.574166536,305.2180176,
2.575833321,305.1899414,
2.577500105,308.1562195,
2.579166651,308.2029114,
2.580833435,307.4446411,
2.582499981,305.6390991,
2.584166765,307.6315918,
2.585833549,308.3719482,
2.587500095,308.1076355,
2.58916688,307.7679443,
2.590833187,307.4312134,
2.592499971,307.5784912,
2.594166756,309.7998352,
2.595833302,307.1165161,
2.597500086,305.8184509,
2.599166632,304.4094849,
2.600833416,305.811554,
2.6025002,306.9800415,
2.604166746,309.9396057,
2.60583353,307.375824,
2.607499838,306.7461548,
2.609166622,306.7213135,
2.610833406,305.6487732,
2.612499952,306.3597717,
2.614166737,306.3708496,
2.615833282,306.5970459,
2.617500067,305.9647217,
2.619166851,307.0384216,
2.620833397,307.903595,
2.622500181,305.2813721,
2.624166727,307.0214844,
2.625833273,306.1161499,
2.627500057,306.468689,
2.629166603,305.5449524,
2.630833387,307.6808777,
2.632499933,304.6011963,
2.634166718,306.9031372,
2.635833502,305.9359131,
2.637500048,305.9137878,
2.639166832,304.8752136,
2.640833378,305.9937134,
2.642500162,304.4341125,
2.644166708,303.4689636,
2.645833254,306.0778198,
2.647500038,304.5561523,
2.649166584,305.3243103,
2.650833368,306.7612915,
2.652500153,305.0075073,
2.654166698,306.1037292,
2.655833483,305.2181702,
2.657500029,306.1333008,
2.659166813,306.2258606,
2.660833597,305.7076416,
2.662499905,305.6221619,
2.664166689,306.4327393,
2.665833235,306.5562134,
2.667500019,305.0769043,
2.669166803,305.8340454,
2.670833349,305.1799316,
2.672500134,304.4739075,
2.674166679,305.9489746,
2.675833464,306.1081543,
2.677500248,303.6218262,
2.679166555,307.8322449,
2.68083334,305.2867737,
2.682499886,305.146759,
2.68416667,305.5784302,
2.685833454,306.1079407,
2.6875,304.211853,
2.689166784,307.8057556,
2.69083333,305.5597534,
2.692500114,305.0990601,
2.694166899,304.771698,
2.695833445,305.0590515,
2.69749999,304.9029236,
2.699166536,304.5393677,
2.700833321,307.2753601,
2.702500105,305.2524109,
2.704166651,305.997467,
2.705833435,304.3188171,
2.707499981,306.8299255,
2.709166765,305.395752,
2.710833549,304.3605347,
2.712500095,304.868866,
2.71416688,305.0359802,
2.715833187,304.8523865,
2.717499971,307.2901001,
2.719166756,302.598938,
2.720833302,305.2267761,
2.722500086,305.4163818,
2.724166632,305.2503662,
2.725833416,305.1618958,
2.7275002,304.2496338,
2.729166746,305.0810242,
2.73083353,304.6419067,
2.732499838,304.8630981,
2.734166622,305.7807312,
2.735833406,306.8101501,
2.737499952,304.4587708,
2.739166737,304.7775269,
2.740833282,304.3938599,
2.742500067,305.4641724,
2.744166851,304.6823425,
2.745833397,304.4396057,
2.747500181,305.1421814,
2.749166727,305.3635254,
2.750833273,304.0458374,
2.752500057,305.0759583,
2.754166603,304.7605591,
2.755833387,304.5840759,
2.757499933,303.6211853,
2.759166718,304.2695313,
2.760833502,305.1341248,
2.762500048,304.657959,
2.764166832,304.2031555,
2.765833378,305.9545898,
2.767500162,305.1868896,
2.769166708,302.2514954,
2.770833254,302.4526062,
2.772500038,304.4427795,
2.774166584,303.3771973,
2.775833368,303.3683472,
2.777500153,304.0261841,
2.779166698,303.1308289,
2.780833483,304.3892517,
2.782500029,304.1278076,
2.784166813,305.0617065,
2.785833597,304.6908569,
2.787499905,305.953125,
2.789166689,305.8336487,
2.790833235,303.5074158,
2.792500019,304.5235901,
2.794166803,303.6442871,
2.795833349,303.427002,
2.797500134,304.7022095,
2.799166679,303.4945068,
2.800833464,302.7888794,
2.802500248,304.143158,
2.804166555,302.8093872,
2.80583334,304.1425781,
2.807499886,303.2833252,
2.80916667,302.9134521,
2.810833454,302.8545227,
2.8125,301.6689148,
2.814166784,303.8829346,
2.81583333,303.2176208,
2.817500114,302.7424011,
2.819166899,302.2151184,
2.820833445,305.8408813,
2.82249999,301.3166809,
2.824166536,303.6907349,
2.825833321,302.3687744,
2.827500105,302.661499,
2.829166651,304.3059998,
2.830833435,303.4359436,
2.832499981,303.7354736,
2.834166765,303.7987671,
2.835833549,303.2131348,
2.837500095,302.7942505,
2.83916688,304.6029968,
2.840833187,301.9970703,
2.842499971,303.6329956,
2.844166756,304.211792,
2.845833302,303.7374878,
2.847500086,305.0055847,
2.849166632,303.3344727,
2.850833416,303.3363647,
2.8525002,302.669342,
2.854166746,302.7276611,
2.85583353,303.7940674,
2.857499838,303.7167969,
2.859166622,303.6913147,
2.860833406,302.7834778,
2.862499952,304.0344238,
2.864166737,303.7670593,
2.865833282,302.278595,
2.867500067,301.5641479,
2.869166851,301.8862305,
2.870833397,302.8963013,
2.872500181,302.010376,
2.874166727,302.0931396,
2.875833273,304.0507507,
2.877500057,302.9685364,
2.879166603,302.1952209,
2.880833387,303.3341064,
2.882499933,302.3503723,
2.884166718,303.1755066,
2.885833502,302.4234314,
2.887500048,300.9655457,
2.889166832,304.4128418,
2.890833378,302.4537048,
2.892500162,302.0831299,
2.894166708,301.611969,
2.895833254,301.5783386,
2.897500038,303.2235107,
2.899166584,301.7729797,
2.900833368,303.0686951,
2.902500153,301.9665833,
2.904166698,302.6526184,
2.905833483,300.5551453,
2.907500029,301.1947937,
2.909166813,302.8037415,
2.910833597,301.829834,
2.912499905,302.582428,
2.914166689,300.5214539,
2.915833235,301.7527771,
2.917500019,303.2875977,
2.919166803,302.70224,
2.920833349,301.4291992,
2.922500134,302.1007996,
2.924166679,301.3475037,
2.925833464,303.2299805,
2.927500248,300.7319031,
2.929166555,301.6913757,
2.93083334,301.3807678,
2.932499886,302.4472656,
2.93416667,303.9586487,
2.935833454,304.1697693,
2.9375,302.5090332,
2.939166784,304.1527405,
2.94083333,302.7001038,
2.942500114,302.9543457,
2.944166899,302.4974976,
2.945833445,301.7566223,
2.94749999,301.9219055,
2.949166536,301.4427795,
2.950833321,301.5028992,
2.952500105,301.4098206,
2.954166651,302.7520142,
2.955833435,302.0548401,
2.957499981,300.1191101,
2.959166765,303.3328857,
2.960833549,301.2309875,
2.962500095,300.9796448,
2.96416688,301.3797302,
2.965833187,301.0085754,
2.967499971,299.7987366,
2.969166756,300.2362976,
2.970833302,301.184082,
2.972500086,300.5044861,
2.974166632,301.0297852,
2.975833416,300.973175,
2.9775002,302.2668152,
2.979166746,302.2141113,
2.98083353,304.5131531,
2.982499838,302.5658264,
2.984166622,301.7442017,
2.985833406,299.4720154,
2.987499952,300.5326538,
2.989166737,300.5884094,
2.990833282,301.2930603,
2.992500067,303.5984497,
2.994166851,303.4512329,
2.995833397,302.1435547,
2.997500181,301.3110657,
2.999166727,299.9847717,
3.000833273,301.2565613,
3.002500057,300.9680176,
3.004166603,303.4050293,
3.005833387,301.3255615,
3.007499933,301.9851074,
3.009166718,301.1535034,
3.010833502,301.5509338,
3.012500048,301.9927063,
3.014166832,300.5648193,
3.015833378,303.0147705,
3.017500162,299.5618896,
3.019166708,301.540802,
3.020833254,299.9532776,
3.022500038,300.0024109,
3.024166584,300.5024109,
3.025833368,301.2679749,
3.027500153,300.1489258,
3.029166698,301.6758728,
3.030833483,300.6352539,
3.032500029,302.2728271,
3.034166813,301.539856,
3.035833597,300.2063599,
3.037499905,299.9399109,
3.039166689,302.3357544,
3.040833235,302.120636,
3.042500019,301.3467712,
3.044166803,299.9749756,
3.045833349,300.2842102,
3.047500134,301.2520447,
3.049166679,301.5686035,
3.050833464,300.3473511,
3.052500248,299.6985168,
3.054166555,298.7264709,
3.05583334,302.9274292,
3.057499886,298.9276733,
3.05916667,301.2328186,
3.060833454,301.1023254,
3.0625,300.9020386,
3.064166784,300.4827576,
3.06583333,301.0473633,
3.067500114,299.9910278,
3.069166899,299.6275024,
3.070833445,300.4265442,
3.07249999,300.8793945,
3.074166536,299.7335205,
3.075833321,298.0905151,
3.077500105,301.2622375,
3.079166651,300.2324219,
3.080833435,299.1368713,
3.082499981,301.7087402,
3.084166765,299.7178955,
3.085833549,300.9724731,
3.087500095,300.9660339,
3.08916688,301.4802551,
3.090833187,301.3746643,
3.092499971,301.0979919,
3.094166756,300.0968628,
3.095833302,301.8216553,
3.097500086,300.2147827,
3.099166632,300.6732178,
3.100833416,303.6575928,
3.1025002,298.9077759,
3.104166746,299.6644287,
3.10583353,302.4443054,
3.107499838,302.837738,
3.109166622,300.5141907,
3.110833406,300.0692139,
3.112499952,299.2655334,
3.114166737,301.2272339,
3.115833282,300.3270569,
3.117500067,301.1920166,
3.119166851,300.2211914,
3.120833397,298.8527832,
3.122500181,300.1169739,
3.124166727,301.5219421,
3.125833273,301.1868591,
3.127500057,299.5910034,
3.129166603,299.8928223,
3.130833387,300.9654846,
3.132499933,300.4266357,
3.134166718,301.1318359,
3.135833502,300.1630554,
3.137500048,301.2277222,
3.139166832,300.5939941,
3.140833378,300.8934631,
3.142500162,300.0224915,
3.144166708,299.4512939,
3.145833254,298.7938538,
3.147500038,299.6724854,
3.149166584,300.7467346,
3.150833368,300.0570984,
3.152500153,298.9613342,
3.154166698,300.6325073,
3.155833483,299.1750488,
3.157500029,299.4115906,
3.159166813,300.234314,
3.160833597,298.5414429,
3.162499905,298.9868774,
3.164166689,299.9804993,
3.165833235,300.2151794,
3.167500019,297.1977844,
3.169166803,298.7944336,
3.170833349,300.1091003,
3.172500134,300.0935669,
3.174166679,299.3564453,
3.175833464,298.8530884,
3.177500248,297.9396973,
3.179166555,298.8436279,
3.18083334,300.1130371,
3.182499886,298.6846313,
3.18416667,298.1911011,
3.185833454,300.3598328,
3.1875,298.3175964,
3.189166784,299.0858154,
3.19083333,298.6800537,
3.192500114,299.7628784,
3.194166899,299.2599792,
3.195833445,298.6081543,
3.19749999,298.8374023,
3.199166536,299.4964905,
3.200833321,302.7919922,
3.202500105,299.5621338,
3.204166651,298.6665955,
3.205833435,298.4945374,
3.207499981,299.2711182,
3.209166765,300.6366882,
3.210833549,299.2929688,
3.212500095,301.4197083,
3.21416688,300.5007019,
3.215833187,300.9009705,
3.217499971,299.4031982,
3.219166756,298.5057983,
3.220833302,300.5213623,
3.222500086,297.8978882,
3.224166632,298.0245972,
3.225833416,299.2208252,
3.2275002,300.467926,
3.229166746,299.480072,
3.23083353,299.0965881,
3.232499838,299.4876099,
3.234166622,300.8067322,
3.235833406,298.4088135,
3.237499952,298.3507996,
3.239166737,299.4631653,
3.240833282,298.2614136,
3.242500067,299.9841919,
3.244166851,299.7338867,
3.245833397,301.1645508,
3.247500181,298.8900146,
3.249166727,301.7109985,
3.250833273,298.5816345,
3.252500057,298.7177124,
3.254166603,299.5097961,
3.255833387,298.0996094,
3.257499933,297.756073,
3.259166718,298.1687622,
3.260833502,297.9726563,
3.262500048,298.5997009,
3.264166832,298.5228577,
3.265833378,297.8757935,
3.267500162,298.910614,
3.269166708,298.6622009,
3.270833254,298.9014893,
3.272500038,300.4264832,
3.274166584,299.4223328,
3.275833368,300.3802185,
3.277500153,299.0819702,
3.279166698,298.2612,
3.280833483,298.4763794,
3.282500029,298.0737305,
3.284166813,300.0709229,
3.285833597,297.6912231,
3.287499905,298.2018738,
3.289166689,297.5587158,
3.290833235,299.2363586,
3.292500019,298.339386,
3.294166803,299.2674866,
3.295833349,298.7661438,
3.297500134,299.4249268,
3.299166679,297.0131836,
3.300833464,297.4940491,
3.302500248,298.9197083,
3.304166555,299.0331116,
3.30583334,299.0169678,
3.307499886,298.8156128,
3.30916667,299.5495605,
3.310833454,298.92453,
3.3125,299.5307617,
3.314166784,296.9995117,
3.31583333,297.5153503,
3.317500114,298.9749756,
3.319166899,300.4273071,
3.320833445,296.6030273,
3.32249999,297.4772339,
3.324166536,299.2420654,
3.325833321,297.1711121,
3.327500105,298.1194153,
3.329166651,298.5110779,
3.330833435,298.9563904,
3.332499981,297.9722595,
3.334166765,299.9311218,
3.335833549,297.0302429,
3.337500095,297.2480164,
3.33916688,298.6262207,
3.340833187,297.2276917,
3.342499971,298.2748413,
3.344166756,298.598877,
3.345833302,297.8115234,
3.347500086,299.9675293,
3.349166632,296.5702515,
3.350833416,297.9709778,
3.3525002,298.7581482,
3.354166746,298.0882568,
3.35583353,297.9968567,
3.357499838,297.3514099,
3.359166622,298.5737305,
3.360833406,298.5907898,
3.362499952,295.7363586,
3.364166737,298.4052429,
3.365833282,296.8805542,
3.367500067,296.9146118,
3.369166851,300.3035583,
3.370833397,298.7936401,
3.372500181,297.8677979,
3.374166727,297.2351685,
3.375833273,297.9795837,
3.377500057,295.5175781,
3.379166603,297.2185364,
3.380833387,298.7246094,
3.382499933,298.6151733,
3.384166718,298.4570313,
3.385833502,297.6424866,
3.387500048,297.3990784,
3.389166832,297.303894,
3.390833378,299.231842,
3.392500162,297.546051,
3.394166708,297.605835,
3.395833254,298.5522461,
3.397500038,295.9376526,
3.399166584,299.744812,
3.400833368,297.3969116,
3.402500153,297.3884888,
3.404166698,299.4381409,
3.405833483,297.7841492,
3.407500029,297.9361877,
3.409166813,297.1231995,
3.410833597,297.2950134,
3.412499905,297.2836609,
3.414166689,299.1736145,
3.415833235,297.2785034,
3.417500019,297.2059326,
3.419166803,296.147583,
3.420833349,299.6080017,
3.422500134,296.9184875,
3.424166679,298.6109924,
3.425833464,296.7203979,
3.427500248,298.836853,
3.429166555,296.7909546,
3.43083334,297.2125549,
3.432499886,295.7476196,
3.43416667,299.3370056,
3.435833454,298.9877625,
3.4375,296.701355,
3.439166784,298.7242432,
3.44083333,296.5365906,
3.442500114,299.7595825,
3.444166899,294.4525146,
3.445833445,297.2984314,
3.44749999,298.9220886,
3.449166536,298.3282471,
3.450833321,297.427887,
3.452500105,297.3936157,
3.454166651,296.2663269,
3.455833435,297.4506836,
3.457499981,295.3942871,
3.459166765,295.5415955,
3.460833549,295.8799133,
3.462500095,297.9529724,
3.46416688,297.3924561,
3.465833187,297.1335754,
3.467499971,296.7702942,
3.469166756,298.0481873,
3.470833302,295.2218933,
3.472500086,298.3219299,
3.474166632,297.3035583,
3.475833416,297.3020325,
3.4775002,298.7566528,
3.479166746,297.2060242,
3.48083353,295.896759,
3.482499838,296.4035034,
3.484166622,296.6494141,
3.485833406,294.8268127,
3.487499952,297.6817932,
3.489166737,295.6802979,
3.490833282,296.0906067,
3.492500067,295.5675659,
3.494166851,297.0969238,
3.495833397,295.1403198,
3.497500181,296.329071,
3.499166727,296.0381775,
3.500833273,295.454834,
3.502500057,294.8869934,
3.504166603,297.5802917,
3.505833387,294.8009033,
3.507499933,296.4096069,
3.509166718,296.3076172,
3.510833502,297.0198669,
3.512500048,298.0200806,
3.514166832,298.239624,
3.515833378,296.2980652,
3.517500162,295.7442017,
3.519166708,295.8711243,
3.520833254,297.2114258,
3.522500038,295.2561035,
3.524166584,296.3438416,
3.525833368,295.805542,
3.527500153,297.8023071,
3.529166698,295.8636169,
3.530833483,296.9545898,
3.532500029,294.8609924,
3.534166813,295.1091003,
3.535833597,297.2361755,
3.537499905,296.5129089,
3.539166689,297.1628723,
3.540833235,296.4428406,
3.542500019,298.7514343,
3.544166803,294.5484009,
3.545833349,297.2351074,
3.547500134,298.3115234,
3.549166679,296.678833,
3.550833464,296.5167542,
3.552500248,295.7438354,
3.554166555,295.8092041,
3.55583334,296.5384216,
3.557499886,297.3487549,
3.55916667,298.2156677,
3.560833454,297.1367493,
3.5625,295.6237793,
3.564166784,295.4419556,
3.56583333,297.0546265,
3.567500114,295.2171631,
3.569166899,297.5788269,
3.570833445,296.4611816,
3.57249999,294.6405029,
3.574166536,296.3820496,
3.575833321,295.8731689,
3.577500105,296.5095825,
3.579166651,296.1950989,
3.580833435,295.8634338,
3.582499981,296.0279846,
3.584166765,295.6809692,
3.585833549,295.3102112,
3.587500095,296.3402405,
3.58916688,296.1480408,
3.590833187,296.5249023,
3.592499971,297.0362854,
3.594166756,296.0351257,
3.595833302,298.518158,
3.597500086,296.9455872,
3.599166632,295.367157,
3.600833416,296.0062866,
3.6025002,296.8054504,
3.604166746,296.6267395,
3.60583353,298.3558044,
3.607499838,297.1463623,
3.609166622,295.5751038,
3.610833406,294.3230591,
3.612499952,294.8584595,
3.614166737,295.1052246,
3.615833282,295.2147217,
3.617500067,295.9577026,
3.619166851,294.6933594,
3.620833397,298.594635,
3.622500181,295.9430847,
3.624166727,296.6899414,
3.625833273,295.4914551,
3.627500057,296.6650085,
3.629166603,297.348999,
3.630833387,296.9981689,
3.632499933,296.2710876,
3.634166718,295.9410706,
3.635833502,297.477356,
3.637500048,295.6256104,
3.639166832,296.0901184,
3.640833378,297.5738525,
3.642500162,293.9396973,
3.644166708,296.662323,
3.645833254,296.002533,
3.647500038,295.1031189,
3.649166584,296.2684937,
3.650833368,297.6678162,
3.652500153,295.565094,
3.654166698,294.7886047,
3.655833483,295.3190002,
3.657500029,294.3057556,
3.659166813,297.6435547,
3.660833597,295.8001404,
3.662499905,296.3522644,
3.664166689,295.0007935,
3.665833235,295.6396484,
3.667500019,293.8416748,
3.669166803,296.1263733,
3.670833349,297.5868225,
3.672500134,296.4910278,
3.674166679,298.7499695,
3.675833464,297.3778992,
3.677500248,296.8734131,
3.679166555,296.0769653,
3.68083334,295.1811218,
3.682499886,295.0718079,
3.68416667,293.9859619,
3.685833454,296.9169006,
3.6875,294.5531616,
3.689166784,294.7466736,
3.69083333,296.8157654,
3.692500114,294.0593567,
3.694166899,295.1347961,
3.695833445,294.4457397,
3.69749999,294.3005981,
3.699166536,294.5286865,
3.700833321,296.3124695,
3.702500105,294.5692139,
3.704166651,295.2928467,
3.705833435,295.4581299,
3.707499981,295.4858093,
3.709166765,296.5273438,
3.710833549,296.2705078,
3.712500095,295.5844116,
3.71416688,296.8206787,
3.715833187,295.1037598,
3.717499971,296.161499,
3.719166756,296.1014099,
3.720833302,294.79245,
3.722500086,294.3222351,
3.724166632,295.7900696,
3.725833416,294.3685303,
3.7275002,296.3042603,
3.729166746,295.2542725,
3.73083353,296.477356,
3.732499838,295.8433838,
3.734166622,294.9894409,
3.735833406,294.8899841,
3.737499952,295.1435547,
3.739166737,295.4910583,
3.740833282,297.6970825,
3.742500067,294.1800232,
3.744166851,295.1869812,
3.745833397,296.2730713,
3.747500181,295.5269775,
3.749166727,295.6604919,
3.750833273,297.0231628,
3.752500057,294.7747498,
3.754166603,294.5559998,
3.755833387,296.3986816,
3.757499933,294.5216064,
3.759166718,295.4944763,
3.760833502,295.5389709,
3.762500048,294.3328247,
3.764166832,293.9984436,
3.765833378,293.3500671,
3.767500162,295.4099731,
3.769166708,297.00354,
3.770833254,294.3457031,
3.772500038,296.3082275,
3.774166584,292.9362183,
3.775833368,296.2654114,
3.777500153,294.6662903,
3.779166698,294.5938416,
3.780833483,295.2717285,
3.782500029,298.4026184,
3.784166813,294.8600769,
3.785833597,294.4500732,
3.787499905,294.5843201,
3.789166689,296.082428,
3.790833235,294.7329407,
3.792500019,294.7767029,
3.794166803,294.4007568,
3.795833349,295.8623047,
3.797500134,293.9070435,
3.799166679,294.9129639,
3.800833464,294.5372009,
3.802500248,295.8024292,
3.804166555,295.3439941,
3.80583334,294.1717529,
3.807499886,294.651825,
3.80916667,294.8118286,
3.810833454,295.9288025,
3.8125,292.7897949,
3.814166784,293.0774231,
3.81583333,295.5232849,
3.817500114,294.1910706,
3.819166899,294.2179565,
3.820833445,295.4415588,
3.82249999,294.388092,
3.824166536,294.1436462,
3.825833321,295.0210571,
3.827500105,295.1799316,
3.829166651,294.2476501,
3.830833435,295.4941711,
3.832499981,295.0349731,
3.834166765,295.3968506,
3.835833549,294.5014038,
3.837500095,293.7368469,
3.83916688,293.8346863,
3.840833187,292.7408142,
3.842499971,296.0286255,
3.844166756,294.3916626,
3.845833302,295.0504456,
3.847500086,293.2077942,
3.849166632,293.5694275,
3.850833416,296.1975403,
3.8525002,293.9821777,
3.854166746,294.7226563,
3.85583353,295.0975342,
3.857499838,293.8861694,
3.859166622,294.5315247,
3.860833406,293.4561462,
3.862499952,292.7714539,
3.864166737,294.6922607,
3.865833282,295.8934021,
3.867500067,294.2980957,
3.869166851,294.1443176,
3.870833397,294.530426,
3.872500181,293.2333679,
3.874166727,292.9156799,
3.875833273,296.9689636,
3.877500057,293.5314636,
3.879166603,292.8940735,
3.880833387,295.0680237,
3.882499933,293.4773865,
3.884166718,293.812561,
3.885833502,295.075592,
3.887500048,294.8755798,
3.889166832,293.0892334,
3.890833378,293.1282043,
3.892500162,293.257843,
3.894166708,294.4284668,
3.895833254,292.8264465,
3.897500038,295.4646912,
3.899166584,293.9862061,
3.900833368,296.0065002,
3.902500153,295.0904236,
3.904166698,294.8309631,
3.905833483,293.785675,
3.907500029,294.3343811,
3.909166813,294.8196716,
3.910833597,296.0328064,
3.912499905,294.9746704,
3.914166689,295.7963867,
3.915833235,294.1499329,
3.917500019,295.0603027,
3.919166803,294.6693726,
3.920833349,294.4335632,
3.922500134,293.026062,
3.924166679,295.0473938,
3.925833464,294.9449463,
3.927500248,293.2357788,
3.929166555,294.1165771,
3.93083334,294.4034119,
3.932499886,293.3875427,
3.93416667,294.8710327,
3.935833454,293.3718262,
3.9375,294.302124,
3.939166784,293.3959961,
3.94083333,293.036499,
3.942500114,293.8568726,
3.944166899,292.3813477,
3.945833445,295.2489929,
3.94749999,295.2932434,
3.949166536,294.0299377,
3.950833321,293.934845,
3.952500105,295.1708679,
3.954166651,293.8082275,
3.955833435,293.8230591,
3.957499981,293.7524109,
3.959166765,292.3104553,
3.960833549,295.1661987,
3.962500095,292.2949219,
3.96416688,294.1688538,
3.965833187,294.2927246,
3.967499971,293.3318176,
3.969166756,293.5950928,
3.970833302,292.6462708,
3.972500086,293.6312256,
3.974166632,293.8399963,
3.975833416,292.1398315,
3.9775002,294.520752,
3.979166746,293.0742493,
3.98083353,293.7514954,
3.982499838,293.1705017,
3.984166622,293.071167,
3.985833406,294.6707458,
3.987499952,295.8340149,
3.989166737,292.5734253,
3.990833282,292.9976501,
3.992500067,294.8728333,
3.994166851,295.1551819,
3.995833397,292.6262512,
3.997500181,293.6435242,
3.999166727,292.8146362,
4.000833511,295.8099365,
4.002500057,293.6812439,
4.004166603,292.6398621,
4.005833626,293.4197693,
4.007500172,293.1326294,
4.009166718,293.8415222,
4.010833263,292.6203003,
4.012499809,291.5906067,
4.014166832,295.0534058,
4.015833378,293.3273621,
4.017499924,293.1783752,
4.019166946,293.8399353,
4.020833492,293.7181702,
4.022500038,295.0597229,
4.024166584,293.0440674,
4.025833607,293.8188477,
4.027500153,292.6319885,
4.029166698,294.3506775,
4.030833244,294.1746216,
4.03249979,293.29599,
4.034166813,292.8243408,
4.035833359,294.1454468,
4.037499905,293.5510559,
4.039166927,292.4708862,
4.040833473,293.3285522,
4.042500019,297.1181946,
4.044167042,292.7778931,
4.045833111,294.7727661,
4.047500134,293.5430298,
4.049166679,294.1991882,
4.050833225,293.403717,
4.052500248,293.9725647,
4.054166794,294.1394043,
4.05583334,295.1669006,
4.057499886,293.7620544,
4.059166908,292.8156128,
4.060833454,293.1784668,
4.0625,294.743927,
4.064166546,293.6227722,
4.065833092,293.6085205,
4.067500114,292.4840088,
4.06916666,295.6277161,
4.070833206,293.1829529,
4.072500229,293.6005554,
4.074166775,293.227356,
4.075833321,293.3256531,
4.077500343,295.0830994,
4.079166889,293.2874146,
4.080833435,292.007019,
4.082499981,293.4006958,
4.084166527,294.802063,
4.085833549,294.2316284,
4.087500095,292.6861572,
4.089166641,294.8288574,
4.090833187,292.4838867,
4.09250021,293.6947937,
4.094166756,292.5561218,
4.095833302,294.320343,
4.097500324,293.0481567,
4.099166393,294.4879456,
4.100833416,293.6122131,
4.102499962,293.618103,
4.104166508,292.5579834,
4.10583353,294.2449341,
4.107500076,292.744812,
4.109166622,293.9430542,
4.110833645,294.5917358,
4.112500191,292.0126038,
4.114166737,293.5623169,
4.115833282,292.8517151,
4.117499828,292.1557922,
4.119166851,293.2991333,
4.120833397,293.9040222,
4.122499943,294.3500671,
4.124166489,292.2894897,
4.125833511,292.1307373,
4.127500057,292.5675964,
4.129166603,293.3970947,
4.130833626,293.1939392,
4.132500172,292.3112183,
4.134166718,293.1849365,
4.135833263,292.6966858,
4.137499809,292.7056885,
4.139166832,292.0409851,
4.140833378,291.6611633,
4.142499924,292.6975098,
4.144166946,293.586792,
4.145833492,294.2036743,
4.147500038,292.1901245,
4.149166584,295.1612854,
4.150833607,292.000885,
4.152500153,292.7239075,
4.154166698,293.4411621,
4.155833244,294.8829956,
4.15749979,294.0556641,
4.159166813,293.0870972,
4.160833359,294.1249695,
4.162499905,293.9887695,
4.164166927,291.1331787,
4.165833473,292.557312,
4.167500019,294.2105103,
4.169167042,292.9563599,
4.170833111,294.5427246,
4.172500134,293.0810547,
4.174166679,291.0646057,
4.175833225,292.6657104,
4.177500248,291.6398621,
4.179166794,292.6461182,
4.18083334,293.213501,
4.182499886,292.2115173,
4.184166908,292.0630798,
4.185833454,295.7951965,
4.1875,292.3643188,
4.189166546,293.2177124,
4.190833092,292.2528381,
4.192500114,292.3561401,
4.19416666,291.4978638,
4.195833206,292.0746155,
4.197500229,292.1867676,
4.199166775,291.8705139,
4.200833321,292.736084,
4.202500343,292.8461609,
4.204166889,290.690918,
4.205833435,293.4955139,
4.207499981,291.7675171,
4.209166527,292.3100891,
4.210833549,293.7319031,
4.212500095,292.4962158,
4.214166641,293.2810669,
4.215833187,291.3525696,
4.21750021,291.7746582,
4.219166756,291.8742676,
4.220833302,292.880127,
4.222500324,291.2831726,
4.224166393,293.7134399,
4.225833416,293.2997437,
4.227499962,291.4256287,
4.229166508,291.4343262,
4.23083353,294.4685364,
4.232500076,292.0474548,
4.234166622,292.9810486,
4.235833645,291.4117737,
4.237500191,294.3955688,
4.239166737,293.5175476,
4.240833282,291.5817871,
4.242499828,293.1329041,
4.244166851,292.2503052,
4.245833397,291.3484192,
4.247499943,290.9092102,
4.249166489,293.3351135,
4.250833511,292.7697144,
4.252500057,293.5403748,
4.254166603,292.1291504,
4.255833626,291.6183472,
4.257500172,293.2962952,
4.259166718,295.0365601,
4.260833263,293.531311,
4.262499809,293.8542175,
4.264166832,292.0817871,
4.265833378,293.1398621,
4.267500401,291.8851013,
4.26916647,294.2899475,
4.270833492,293.6978149,
4.272500038,291.0645447,
4.274167061,291.6091614,
4.275833607,293.9692078,
4.277499676,294.3884888,
4.279166698,293.4801331,
4.280833244,293.6820374,
4.282500267,293.0609741,
4.284166813,291.7412415,
4.285833359,293.388855,
4.287499905,292.666626,
4.289166927,292.1688232,
4.290833473,294.7909241,
4.292500496,294.4358215,
4.294166565,291.1647949,
4.295833111,292.9585876,
4.297500134,292.5628967,
4.299166679,293.232666,
4.300833702,291.4031067,
4.302499771,290.3153381,
4.304166794,292.7001343,
4.30583334,293.2120667,
4.307500362,293.1367493,
4.309166908,291.5587158,
4.310833454,292.4815063,
4.3125,292.9784241,
4.314166546,291.5582581,
4.315833569,291.5627136,
4.317500114,292.1604919,
4.31916666,293.2628479,
4.320833206,293.2741699,
4.322500229,292.0388489,
4.324166775,294.2518005,
4.325833797,292.5448914,
4.327499866,290.6711426,
4.329166889,292.1705933,
4.330833435,290.436676,
4.332499981,293.9386292,
4.334167004,292.4075012,
4.335833073,292.815155,
4.337500095,290.8769531,
4.339166641,293.151886,
4.340833664,291.6996155,
4.34250021,292.6150818,
4.344166756,294.1443176,
4.345833302,292.1130066,
4.347500324,293.615387,
4.34916687,292.649231,
4.350833416,291.7485657,
4.352499962,292.8500671,
4.354166508,290.2330017,
4.35583353,293.7616577,
4.357500076,289.2658997,
4.359167099,292.8804932,
4.360833168,291.6789856,
4.362500191,292.1228333,
4.364166737,292.5042725,
4.365833759,292.3021851,
4.367500305,293.1746216,
4.369166374,293.7193604,
4.370833397,294.0693359,
4.372499943,292.7624512,
4.374166965,292.8924561,
4.375833511,290.3814392,
4.377500057,292.539978,
4.379166603,290.8892212,
4.380833626,293.1954956,
4.382500172,291.9559631,
4.384167194,292.0179443,
4.385833263,291.0979004,
4.387499809,291.5592041,
4.389166832,293.5200195,
4.390833378,292.034729,
4.392500401,292.805481,
4.39416647,292.5023804,
4.395833492,291.3160095,
4.397500038,291.3198242,
4.399167061,291.4686279,
4.400833607,291.8610535,
4.402499676,292.1455383,
4.404166698,291.7919006,
4.405833244,292.9728088,
4.407500267,292.6855469,
4.409166813,291.5314636,
4.410833359,291.5823364,
4.412499905,293.8641663,
4.414166927,290.6167908,
4.415833473,292.1222534,
4.417500496,292.1030579,
4.419166565,292.9353638,
4.420833111,292.1286316,
4.422500134,290.4179993,
4.424166679,292.7923279,
4.425833702,291.7353516,
4.427499771,291.6152649,
4.429166794,293.5457153,
4.43083334,291.5876465,
4.432500362,292.4199524,
4.434166908,290.8228455,
4.435833454,292.2681274,
4.4375,292.0433655,
4.439166546,291.8224487,
4.440833569,290.7693481,
4.442500114,290.8540955,
4.44416666,293.2068176,
4.445833206,291.0513,
4.447500229,291.0378723,
4.449166775,291.4439087,
4.450833797,294.1021729,
4.452499866,291.5144653,
4.454166889,291.7377319,
4.455833435,290.4808044,
4.457499981,291.0036926,
4.459167004,291.0320129,
4.460833073,292.5651245,
4.462500095,291.4642029,
4.464166641,292.526001,
4.465833664,290.9333496,
4.46750021,289.9756165,
4.469166756,291.5400085,
4.470833302,291.4249573,
4.472500324,290.2627258,
4.47416687,293.905426,
4.475833416,291.83255,
4.477499962,292.4367065,
4.479166508,294.1227112,
4.48083353,293.5264893,
4.482500076,290.673645,
4.484167099,291.910553,
4.485833168,292.1520691,
4.487500191,291.1787109,
4.489166737,291.4708252,
4.490833759,290.6463013,
4.492500305,290.8513184,
4.494166374,290.9151611,
4.495833397,290.8257141,
4.497499943,291.8224487,
4.499166965,291.1303406,
4.500833511,291.1058655,
4.502500057,290.8737793,
4.504166603,293.0968018,
4.505833626,290.7721863,
4.507500172,292.3254395,
4.509167194,291.6876221,
4.510833263,290.8360596,
4.512499809,290.8936462,
4.514166832,291.771698,
4.515833378,291.2781067,
4.517500401,291.2926331,
4.51916647,292.9143066,
4.520833492,291.2265015,
4.522500038,291.307312,
4.524167061,291.397583,
4.525833607,293.3866577,
4.527499676,291.268158,
4.529166698,289.4229431,
4.530833244,291.3180237,
4.532500267,291.2748108,
4.534166813,293.4027405,
4.535833359,293.4963989,
4.537499905,291.1882935,
4.539166927,291.8036194,
4.540833473,291.4528198,
4.542500496,291.7891846,
4.544166565,291.2109985,
4.545833111,293.3847046,
4.547500134,290.1244812,
4.549166679,292.4255981,
4.550833702,289.6645813,
4.552499771,290.8586121,
4.554166794,288.9580078,
4.55583334,290.7278442,
4.557500362,291.2672424,
4.559166908,291.3809814,
4.560833454,292.131897,
4.5625,292.305603,
4.564166546,292.0438538,
4.565833569,290.3927917,
4.567500114,290.4342346,
4.56916666,291.9270935,
4.570833206,291.1827393,
4.572500229,291.8913269,
4.574166775,290.5122986,
4.575833797,290.9360657,
4.577499866,293.8652954,
4.579166889,291.8026733,
4.580833435,290.2049561,
4.582499981,290.7607422,
4.584167004,290.7984619,
4.585833073,291.0133362,
4.587500095,291.0596008,
4.589166641,292.0751343,
4.590833664,290.5067749,
4.59250021,292.1398315,
4.594166756,290.3807373,
4.595833302,292.5773315,
4.597500324,291.49646,
4.59916687,291.5787354,
4.600833416,291.0709534,
4.602499962,291.5943909,
4.604166508,291.8240051,
4.60583353,291.3283691,
4.607500076,290.9269409,
4.609167099,289.5312195,
4.610833168,291.9566956,
4.612500191,289.48349,
4.614166737,289.9812317,
4.615833759,290.5311584,
4.617500305,291.5652161,
4.619166374,291.116272,
4.620833397,290.4387817,
4.622499943,290.9729919,
4.624166965,290.711731,
4.625833511,290.7276917,
4.627500057,290.2463989,
4.629166603,291.7572327,
4.630833626,291.3038635,
4.632500172,292.0733337,
4.634167194,292.25177,
4.635833263,291.2478333,
4.637499809,291.0886536,
4.639166832,292.2055969,
4.640833378,291.9508972,
4.642500401,291.9432068,
4.64416647,289.4241943,
4.645833492,290.1663818,
4.647500038,292.670929,
4.649167061,291.0232544,
4.650833607,290.7382813,
4.652499676,290.4905701,
4.654166698,290.346405,
4.655833244,291.1208801,
4.657500267,290.4190674,
4.659166813,291.4442749,
4.660833359,290.1877747,
4.662499905,289.2238464,
4.664166927,291.7492676,
4.665833473,291.5289612,
4.667500496,289.3582764,
4.669166565,290.3036194,
4.670833111,290.2705383,
4.672500134,292.2426147,
4.674166679,291.2948914,
4.675833702,290.8509827,
4.677499771,291.5727539,
4.679166794,290.7182007,
4.68083334,290.4846497,
4.682500362,290.3526306,
4.684166908,290.2016296,
4.685833454,290.2683411,
4.6875,289.3798828,
4.689166546,291.2479248,
4.690833569,288.8853455,
4.692500114,290.740387,
4.69416666,289.6643066,
4.695833206,289.6127625,
4.697500229,292.8867188,
4.699166775,289.4410095,
4.700833797,290.4285889,
4.702499866,292.5984802,
4.704166889,290.9563293,
4.705833435,290.7749634,
4.707499981,288.8034363,
4.709167004,292.2478027,
4.710833073,291.7070007,
4.712500095,290.576355,
4.714166641,290.0588074,
4.715833664,291.428772,
4.71750021,291.8389282,
4.719166756,291.2770386,
4.720833302,291.967041,
4.722500324,291.4330444,
4.72416687,290.3253479,
4.725833416,289.3166199,
4.727499962,290.5218506,
4.729166508,291.3262329,
4.73083353,290.2432556,
4.732500076,290.6838684,
4.734167099,292.5722351,
4.735833168,290.0284119,
4.737500191,291.6905823,
4.739166737,291.1676941,
4.740833759,291.4400024,
4.742500305,292.1257629,
4.744166374,291.1295776,
4.745833397,289.1532593,
4.747499943,290.6611328,
4.749166965,289.3088379,
4.750833511,288.6986389,
4.752500057,290.9685059,
4.754166603,292.1526184,
4.755833626,288.9067688,
4.757500172,290.2625427,
4.759167194,291.001709,
4.760833263,290.1890869,
4.762499809,292.1384583,
4.764166832,289.921814,
4.765833378,290.7315063,
4.767500401,291.524231,
4.76916647,288.5393677,
4.770833492,289.9719543,
4.772500038,289.2537537,
4.774167061,290.9423523,
4.775833607,290.2675171,
4.777499676,290.5476379,
4.779166698,290.0694885,
4.780833244,290.3437195,
4.782500267,291.8181763,
4.784166813,289.0539551,
4.785833359,290.7963562,
4.787499905,292.3608704,
4.789166927,289.433197,
4.790833473,289.6366577,
4.792500496,290.9302368,
4.794166565,291.4891357,
4.795833111,291.282196,
4.797500134,288.9389954,
4.799166679,291.6001892,
4.800833702,290.6450806,
4.802499771,289.4553528,
4.804166794,290.6646118,
4.80583334,291.1376343,
4.807500362,292.1703796,
4.809166908,291.820343,
4.810833454,291.2413025,
4.8125,289.4368591,
4.814166546,289.5906677,
4.815833569,293.4067688,
4.817500114,290.2280273,
4.81916666,292.6798706,
4.820833206,289.9030457,
4.822500229,290.4356689,
4.824166775,289.9092102,
4.825833797,289.4803162,
4.827499866,290.7903442,
4.829166889,289.9686584,
4.830833435,292.4907227,
4.832499981,290.1110229,
4.834167004,292.0921021,
4.835833073,291.7366333,
4.837500095,290.5012817,
4.839166641,289.5397339,
4.840833664,290.458313,
4.84250021,290.7348022,
4.844166756,290.4638977,
4.845833302,291.7114258,
4.847500324,292.8037415,
4.84916687,289.8996277,
4.850833416,288.632782,
4.852499962,291.3459778,
4.854166508,291.1721191,
4.85583353,289.8031921,
4.857500076,290.5682373,
4.859167099,291.6909485,
4.860833168,291.2001038,
4.862500191,289.0710449,
4.864166737,291.0106201,
4.865833759,291.6158447,
4.867500305,290.2914734,
4.869166374,289.2045288,
4.870833397,291.654541,
4.872499943,289.3945007,
4.874166965,289.3545227,
4.875833511,289.2262268,
4.877500057,290.6762695,
4.879166603,291.0429688,
4.880833626,289.1783142,
4.882500172,290.2035217,
4.884167194,291.1827393,
4.885833263,290.6864624,
4.887499809,288.1313477,
4.889166832,289.7652893,
4.890833378,291.4230042,
4.892500401,290.0254517,
4.89416647,291.1667175,
4.895833492,292.4978638,
4.897500038,289.3163452,
4.899167061,288.5577087,
4.900833607,289.4927673,
4.902499676,288.9871521,
4.904166698,290.1691284,
4.905833244,289.120575,
4.907500267,290.2961426,
4.909166813,290.6152344,
4.910833359,290.4702759,
4.912499905,289.3790588,
4.914166927,289.9169006,
4.915833473,289.9688721,
4.917500496,290.0220032,
4.919166565,289.1624756,
4.920833111,290.2142944,
4.922500134,290.0089417,
4.924166679,289.3805542,
4.925833702,291.2364807,
4.927499771,289.794281,
4.929166794,289.4223328,
4.93083334,288.5936279,
4.932500362,289.1439514,
4.934166908,289.9154663,
4.935833454,290.9393921,
4.9375,290.1069946,
4.939166546,289.6550598,
4.940833569,291.4258728,
4.942500114,289.4474182,
4.94416666,291.3746338,
4.945833206,291.1283264,
4.947500229,288.09375,
4.949166775,291.8312988,
4.950833797,289.4030457,
4.952499866,289.4080505,
4.954166889,290.6965637,
4.955833435,289.0764771,
4.957499981,292.5769653,
4.959167004,290.0636597,
4.960833073,289.4397278,
4.962500095,289.9540405,
4.964166641,289.0584106,
4.965833664,291.0828552,
4.96750021,289.484314,
4.969166756,290.3007813,
4.970833302,288.7632141,
4.972500324,289.4229736,
4.97416687,289.9575195,
4.975833416,289.3720398,
4.977499962,290.0162659,
4.979166508,288.6032104,
4.98083353,291.042511,
4.982500076,288.2857971,
4.984167099,291.529541,
4.985833168,289.9447327,
4.987500191,289.6798401,
4.989166737,288.005249,
4.990833759,290.2310181,
4.992500305,290.8001099,
4.994166374,290.5122375,
4.995833397,288.9325562,
4.997499943,289.0733032,
4.999166965,290.2425537,
5.000833511,290.342926,
5.002500057,289.899353,
5.004166603,289.6750183,
5.005833626,288.9533386,
5.007500172,290.1485901,
5.009167194,287.8816833,
5.010833263,291.2225037,
5.012499809,288.4404602,
5.014166832,288.0646667,
5.015833378,289.7159119,
5.017500401,290.0111694,
5.01916647,290.9891663,
5.020833492,289.9648132,

