1,,
Time (min),Intensity (a.u.),
0.0008333333535,259.9494934,
0.002500000177,260.8200073,
0.004166666884,261.6624756,
0.005833333358,261.1876221,
0.007500000298,261.8153076,
0.009166667238,261.6870422,
0.01083333418,261.3262024,
0.01250000019,261.5190125,
0.01416666713,259.1480713,
0.01583333313,260.983551,
0.01750000194,261.6091614,
0.01916666701,261.2445068,
0.02083333395,261.763092,
0.02250000089,260.0623779,
0.02416666783,259.1057129,
0.02583333477,261.1055603,
0.02749999985,261.4593811,
0.02916666679,260.2358704,
0.03083333373,261.4119568,
0.03250000253,260.3913269,
0.03416666761,260.3246155,
0.03583333641,260.0523071,
0.03750000149,260.7304688,
0.03916667029,261.1347046,
0.04083333537,259.9358215,
0.04250000045,260.4305725,
0.04416666925,260.6503906,
0.04583333433,260.7445984,
0.04750000313,260.8103943,
0.04916666821,259.4877625,
0.05083333328,262.1916504,
0.05250000209,260.9831848,
0.05416666716,261.1234741,
0.05583333597,259.3253174,
0.05750000104,262.4432068,
0.05916666612,260.1342773,
0.06083333492,259.7941589,
0.0625,258.4880981,
0.06416667253,260.0296021,
0.0658333376,260.742157,
0.06750000268,260.7632446,
0.06916666776,260.7521057,
0.07083333284,260.2461548,
0.07249999791,260.5570374,
0.07416667044,260.2494507,
0.07583333552,261.2926636,
0.0775000006,259.8091736,
0.07916666567,260.5579529,
0.08083333075,260.0386353,
0.08250000328,260.4548645,
0.08416666836,259.3146362,
0.08583333343,261.6263428,
0.08749999851,261.1296692,
0.08916666359,259.3148499,
0.09083333611,260.1219482,
0.09250000119,261.3620605,
0.09416666627,261.4295654,
0.09583333135,262.0841675,
0.09749999642,260.0342712,
0.09916666895,261.9482117,
0.100833334,260.1657104,
0.1024999991,260.055481,
0.1041666642,262.2077026,
0.1058333293,261.1685181,
0.1075000018,263.086792,
0.1091666669,260.5584412,
0.1108333319,261.6134338,
0.112499997,260.862854,
0.1141666621,262.0878906,
0.1158333346,260.0073853,
0.1174999997,260.6496887,
0.1191666648,261.270813,
0.1208333299,262.0461121,
0.1224999949,262.2575073,
0.1241666749,261.5576172,
0.1258333325,261.1455688,
0.1274999976,261.7193298,
0.1291666627,261.3254395,
0.1308333278,259.8100891,
0.1325000077,259.3599854,
0.1341666728,262.1738892,
0.1358333379,261.2998047,
0.137500003,261.7852783,
0.1391666681,261.0259705,
0.1408333331,261.5638428,
0.1424999982,260.2565613,
0.1441666782,260.4175415,
0.1458333284,260.4956055,
0.1475000083,261.0379639,
0.1491666585,260.6616211,
0.1508333385,260.9804077,
0.1525000036,260.7763977,
0.1541666687,260.3520203,
0.1558333337,261.2030334,
0.1574999988,260.3094788,
0.1591666639,260.2509766,
0.1608333439,260.2011108,
0.162499994,261.3961487,
0.164166674,261.7201843,
0.1658333242,260.3121948,
0.1675000042,261.0183411,
0.1691666692,260.8322754,
0.1708333343,259.9977112,
0.1724999994,259.1380615,
0.1741666645,262.5246277,
0.1758333296,261.4688416,
0.1775000095,262.2102051,
0.1791666597,262.0583496,
0.1808333397,261.3690796,
0.1824999899,260.5522461,
0.1841666698,261.0726624,
0.1858333498,262.4044495,
0.1875,261.1520691,
0.18916668,260.6089172,
0.1908333302,261.8348694,
0.1925000101,260.1823425,
0.1941666752,261.2160645,
0.1958333403,262.2408447,
0.1975000054,260.1644592,
0.1991666704,261.0158081,
0.2008333355,258.6585388,
0.2025000155,261.1599731,
0.2041666657,261.9450989,
0.2058333457,261.1776123,
0.2074999958,261.4667053,
0.2091666758,260.3463135,
0.2108333409,261.0421753,
0.212500006,261.064209,
0.214166671,259.9662781,
0.2158333361,260.5182495,
0.2175000012,261.4189758,
0.2191666812,261.5023499,
0.2208333313,261.1865234,
0.2225000113,259.9480896,
0.2241666615,262.9667969,
0.2258333415,262.3903503,
0.2275000066,260.7626953,
0.2291666716,260.9464417,
0.2308333367,259.9915161,
0.2325000018,260.5803833,
0.2341666669,262.221344,
0.2358333468,260.9402771,
0.237499997,260.2658691,
0.239166677,260.8349304,
0.2408333272,259.5962524,
0.2425000072,261.6645203,
0.2441666722,259.4425354,
0.2458333373,260.1239319,
0.2475000024,260.4110718,
0.2491666675,260.4009094,
0.2508333325,261.002655,
0.2524999976,261.1643677,
0.2541666627,263.2257996,
0.2558333278,260.4395752,
0.2574999928,260.973999,
0.2591666579,261.460144,
0.2608333528,261.0981445,
0.2624999881,260.6440125,
0.264166683,262.8509827,
0.2658333182,261.0471802,
0.2675000131,260.5999146,
0.2691666484,262.6008301,
0.2708333433,261.3040466,
0.2725000083,261.3407288,
0.2741666734,260.1855469,
0.2758333385,261.5310059,
0.2775000036,261.2164307,
0.2791666687,261.6003723,
0.2808333337,262.6973877,
0.2824999988,262.0930481,
0.2841666937,262.4332886,
0.285833329,261.042511,
0.287499994,260.3575745,
0.2891666591,261.4064941,
0.290833354,260.996521,
0.2925000191,262.3549194,
0.2941666543,260.7620239,
0.2958333194,263.2281799,
0.2975000143,261.2090454,
0.2991666794,260.1142883,
0.3008333445,260.5180359,
0.3024999797,260.7643433,
0.3041666746,260.3594971,
0.3058333397,260.5705566,
0.3075000048,259.8521118,
0.3091666996,261.6872864,
0.3108333349,260.9772339,
0.3125,260.6702881,
0.3141666651,262.0121765,
0.31583336,261.8038025,
0.317500025,262.184906,
0.3191666603,259.0028381,
0.3208333254,259.9292297,
0.3225000203,261.3155518,
0.3241666853,261.3755493,
0.3258333504,261.6592712,
0.3274999857,261.914093,
0.3291666806,260.9258728,
0.3308333457,262.2041931,
0.3325000107,261.9797363,
0.3341666758,261.2038879,
0.3358333409,262.3250122,
0.337500006,261.1749878,
0.339166671,261.9614258,
0.3408333361,260.3223267,
0.342500031,262.459137,
0.3441666663,259.7298584,
0.3458333313,260.7516174,
0.3474999964,260.803772,
0.3491666913,262.2315674,
0.3508333564,260.9034119,
0.3524999917,261.0549316,
0.3541666567,260.2337646,
0.3558333516,259.903595,
0.3575000167,262.1210327,
0.3591666818,262.7588806,
0.360833317,262.723877,
0.3625000119,260.7461853,
0.364166677,259.9598694,
0.3658333421,262.0066833,
0.3675000072,261.8284302,
0.3691666722,260.2737122,
0.3708333373,260.6480713,
0.3725000024,261.5082397,
0.3741666675,260.2572021,
0.3758333623,259.8009644,
0.3774999976,261.678772,
0.3791666627,260.3478699,
0.3808333278,261.5769348,
0.3825000226,260.9290161,
0.3841666877,262.1469421,
0.385833323,262.0786438,
0.3874999881,262.4789734,
0.389166683,263.2791138,
0.390833348,259.9475098,
0.3925000131,260.4214478,
0.3941666484,260.4490662,
0.3958333433,260.9420776,
0.3975000083,261.2929382,
0.3991666734,263.3056946,
0.4008333385,259.9139709,
0.4025000036,263.1603394,
0.4041666687,260.7292175,
0.4058333337,262.1953735,
0.4074999988,261.1689758,
0.4091666937,261.4371948,
0.410833329,261.6604614,
0.412499994,261.4630737,
0.4141666591,261.4264526,
0.415833354,260.284729,
0.4175000191,260.9039307,
0.4191666543,261.3670349,
0.4208333194,262.8555603,
0.4225000143,260.0053711,
0.4241666794,262.6607666,
0.4258333445,263.577179,
0.4274999797,259.5951843,
0.4291666746,261.2997742,
0.4308333397,259.9847412,
0.4325000048,260.9470215,
0.4341666996,262.0218201,
0.4358333349,262.0096741,
0.4375,262.473999,
0.4391666651,261.6071472,
0.44083336,262.1231995,
0.442500025,260.9725037,
0.4441666603,259.7358704,
0.4458333254,260.8295593,
0.4475000203,261.7041321,
0.4491666853,261.8678284,
0.4508333504,261.3440247,
0.4524999857,261.8255615,
0.4541666806,260.6271057,
0.4558333457,260.6694946,
0.4575000107,262.0123901,
0.4591666758,262.9147339,
0.4608333409,262.3037415,
0.462500006,261.971283,
0.464166671,260.5198364,
0.4658333361,259.5729675,
0.467500031,259.9393921,
0.4691666663,261.8215027,
0.4708333313,262.1453857,
0.4724999964,260.5066528,
0.4741666913,262.0411987,
0.4758333564,260.7637939,
0.4774999917,260.3674622,
0.4791666567,261.1578979,
0.4808333516,260.8043213,
0.4825000167,261.2856445,
0.4841666818,260.8668518,
0.485833317,261.3878784,
0.4875000119,261.1687012,
0.489166677,260.9033203,
0.4908333421,262.4176025,
0.4925000072,261.6943665,
0.4941666722,261.3204346,
0.4958333373,260.8969116,
0.4975000024,262.2983398,
0.4991666675,261.4707947,
0.5008333325,259.571991,
0.5024999976,261.0995789,
0.5041666627,261.1904907,
0.5058333278,261.7458191,
0.5074999928,262.7962341,
0.5091666579,260.1829834,
0.510833323,262.2317505,
0.5124999881,260.8092346,
0.5141666532,262.1803284,
0.5158333182,260.6255798,
0.5175000429,263.1331177,
0.5191666484,260.0111694,
0.5208333135,262.7984314,
0.5224999785,262.2906189,
0.5241667032,261.3326416,
0.5258333683,261.6210632,
0.5274999738,262.4714661,
0.5291666389,262.2938538,
0.5308333635,261.9895935,
0.5325000286,262.9631348,
0.5341666341,260.8248901,
0.5358333588,262.392395,
0.5375000238,261.5761719,
0.5391666889,261.7010498,
0.540833354,260.1030273,
0.5424999595,259.4917908,
0.5441666842,260.674469,
0.5458333492,260.8683167,
0.5475000143,261.7871094,
0.5491666794,260.3410645,
0.5508333445,259.8216858,
0.5525000095,261.1368103,
0.5541666746,263.4689026,
0.5558333993,261.9579163,
0.5575000048,260.861908,
0.5591666698,261.4971619,
0.5608333349,261.717804,
0.5625,260.6318359,
0.5641667247,260.5186157,
0.5658333302,261.9411926,
0.5674999952,261.0609741,
0.5691667199,262.1852417,
0.5708333254,260.9451294,
0.5725000501,262.186615,
0.5741666555,260.3833313,
0.5758333206,261.8749695,
0.5775000453,260.5814209,
0.5791666508,260.2125244,
0.5808333755,261.4825134,
0.5825000405,260.6211243,
0.584166646,259.9482727,
0.5858333707,261.6793213,
0.5874999762,261.1418152,
0.5891667008,261.1297302,
0.5908333659,260.9468994,
0.5924999714,261.6233521,
0.5941666961,261.2237854,
0.5958333611,261.6132813,
0.5975000262,262.8502197,
0.5991666913,260.3849182,
0.6008332968,260.5881348,
0.6025000215,258.8990784,
0.6041666865,262.315033,
0.6058333516,261.1826172,
0.6075000167,261.7070618,
0.6091666818,263.411438,
0.6108333468,262.8119812,
0.6125000119,260.838501,
0.614166677,261.1276245,
0.6158333421,260.6306152,
0.6175000072,262.4294128,
0.6191666722,260.9095154,
0.6208333373,261.1349487,
0.622500062,260.9021912,
0.6241666675,261.4648132,
0.6258333325,262.497345,
0.6274999976,260.7301025,
0.6291666627,260.5462341,
0.6308333874,262.0577393,
0.6324999928,261.433136,
0.6341666579,262.499939,
0.6358333826,261.1079712,
0.6374999881,260.1042786,
0.6391667128,261.1439514,
0.6408333182,260.3461914,
0.6424999833,260.8733215,
0.644166708,261.8457031,
0.6458333135,260.3776245,
0.6475000381,264.3217163,
0.6491667032,262.5250854,
0.6508333087,261.9230652,
0.6525000334,260.4807434,
0.6541666389,260.9438477,
0.6558333635,263.2481689,
0.6575000286,262.7306213,
0.6591666341,261.5800171,
0.6608333588,262.4518738,
0.6625000238,262.6386719,
0.6641666889,261.0205078,
0.665833354,262.1461182,
0.6674999595,260.2200012,
0.6691666842,259.7033997,
0.6708333492,260.9202881,
0.6725000143,262.0435791,
0.6741666794,260.9707031,
0.6758333445,262.0521851,
0.6775000095,261.406311,
0.6791666746,261.2848816,
0.6808333993,261.6135864,
0.6825000048,260.7290039,
0.6841666698,261.741272,
0.6858333349,262.1043701,
0.6875,262.196228,
0.6891667247,262.9119873,
0.6908333302,261.5549011,
0.6924999952,261.6722717,
0.6941667199,260.7586975,
0.6958333254,262.3066711,
0.6975000501,263.0785522,
0.6991666555,262.3008728,
0.7008333206,261.2469482,
0.7025000453,262.3364868,
0.7041666508,260.7331238,
0.7058333755,260.3690491,
0.7075000405,264.1836853,
0.709166646,261.9622498,
0.7108333707,262.1566162,
0.7124999762,261.4176331,
0.7141667008,261.8643799,
0.7158333659,261.7876282,
0.7174999714,261.0274658,
0.7191666961,261.1889648,
0.7208333611,262.3846436,
0.7225000262,261.706604,
0.7241666913,260.8981018,
0.7258332968,261,
0.7275000215,261.4586792,
0.7291666865,261.9089661,
0.7308333516,260.7441711,
0.7325000167,262.5433044,
0.7341666818,260.5733337,
0.7358333468,262.9338684,
0.7375000119,261.9527893,
0.739166677,261.7114563,
0.7408333421,262.3569031,
0.7425000072,260.1177368,
0.7441666722,261.525238,
0.7458333373,262.1933899,
0.747500062,261.2998352,
0.7491666675,260.0539551,
0.7508333325,261.6190796,
0.7524999976,261.9999084,
0.7541666627,261.6488342,
0.7558333874,261.9408264,
0.7574999928,261.578064,
0.7591666579,259.7771606,
0.7608333826,262.403595,
0.7624999881,262.4006348,
0.7641667128,262.6040955,
0.7658333182,261.5667725,
0.7674999833,263.2310791,
0.769166708,261.5864868,
0.7708333135,262.2828979,
0.7725000381,260.7809753,
0.7741667032,262.0393372,
0.7758333087,261.7613525,
0.7775000334,262.8799133,
0.7791666389,260.7057495,
0.7808333635,260.0860596,
0.7825000286,262.2385864,
0.7841666341,262.0666199,
0.7858333588,261.8291321,
0.7875000238,260.6543884,
0.7891666889,260.6115112,
0.790833354,261.7760925,
0.7924999595,262.1352539,
0.7941666842,262.9627991,
0.7958333492,261.5426331,
0.7975000143,261.7345276,
0.7991666794,260.7509155,
0.8008333445,261.4511719,
0.8025000095,261.2519836,
0.8041666746,260.6221619,
0.8058333993,262.1549988,
0.8075000048,263.484375,
0.8091666698,262.9212036,
0.8108333349,263.0455322,
0.8125,262.1302185,
0.8141667247,261.290802,
0.8158333302,261.8338318,
0.8174999952,260.8557129,
0.8191667199,260.1853333,
0.8208333254,263.0292053,
0.8225000501,262.7373047,
0.8241666555,261.9825745,
0.8258333206,259.4962769,
0.8275000453,259.4560242,
0.8291666508,262.1139832,
0.8308333755,261.6602478,
0.8325000405,260.9334106,
0.834166646,261.9534912,
0.8358333707,260.6990051,
0.8374999762,260.7154236,
0.8391667008,261.2436829,
0.8408333659,262.348114,
0.8424999714,263.0691528,
0.8441666961,261.5,
0.8458333611,262.0467834,
0.8475000262,262.5492859,
0.8491666913,260.6576538,
0.8508332968,260.6950378,
0.8525000215,261.0821228,
0.8541666865,262.3433533,
0.8558333516,262.5726013,
0.8575000167,261.708252,
0.8591666818,260.2845459,
0.8608333468,260.315094,
0.8625000119,261.3542175,
0.864166677,260.9778137,
0.8658333421,261.4372253,
0.8675000072,262.4833679,
0.8691666722,261.2864685,
0.8708333373,262.2902222,
0.872500062,262.1245422,
0.8741666675,263.8768921,
0.8758333325,262.1506348,
0.8774999976,261.8872375,
0.8791666627,263.4492798,
0.8808333874,261.3485413,
0.8824999928,263.0578918,
0.8841666579,261.8851624,
0.8858333826,261.7702332,
0.8874999881,262.3881836,
0.8891667128,261.9556274,
0.8908333182,261.6849365,
0.8924999833,262.3746643,
0.894166708,260.2601929,
0.8958333135,261.3972168,
0.8975000381,262.3070679,
0.8991667032,260.4031677,
0.9008333087,261.1887817,
0.9025000334,262.7197571,
0.9041666389,262.4161987,
0.9058333635,260.0220032,
0.9075000286,260.9015808,
0.9091666341,261.2140808,
0.9108333588,260.5791016,
0.9125000238,262.5989685,
0.9141666889,261.3909607,
0.915833354,260.9355164,
0.9174999595,263.0614014,
0.9191666842,263.3676147,
0.9208333492,261.8791199,
0.9225000143,260.7062073,
0.9241666794,262.0760803,
0.9258333445,260.8210449,
0.9275000095,261.10495,
0.9291666746,260.9577637,
0.9308333993,261.9508362,
0.9325000048,261.6720581,
0.9341666698,260.6627502,
0.9358333349,261.6558228,
0.9375,260.1502991,
0.9391667247,262.850708,
0.9408333302,260.9390259,
0.9424999952,261.8663635,
0.9441667199,260.8171387,
0.9458333254,260.3229065,
0.9475000501,261.1661072,
0.9491666555,259.70401,
0.9508333206,262.2647705,
0.9525000453,260.7713318,
0.9541666508,261.7572937,
0.9558333755,260.4059143,
0.9575000405,262.1396484,
0.959166646,260.7077637,
0.9608333707,260.5088196,
0.9624999762,262.1351929,
0.9641667008,261.2906189,
0.9658333659,261.4866638,
0.9674999714,261.0847778,
0.9691666961,262.444519,
0.9708333611,262.8769836,
0.9725000262,260.2447815,
0.9741666913,260.2583313,
0.9758332968,263.4562073,
0.9775000215,260.4915466,
0.9791666865,261.7238464,
0.9808333516,258.9981079,
0.9825000167,261.9615173,
0.9841666818,261.5429993,
0.9858333468,261.984314,
0.9875000119,261.9837952,
0.989166677,261.2118835,
0.9908333421,261.8701477,
0.9925000072,261.2519226,
0.9941666722,263.0472412,
0.9958333373,261.6940918,
0.997500062,261.9101563,
0.9991666675,259.8777466,
1.000833273,261.9040527,
1.002500057,260.8911133,
1.004166722,260.8364563,
1.005833387,261.2898865,
1.007500052,261.9796753,
1.009166598,262.8027039,
1.010833383,261.5507202,
1.012500048,260.8276062,
1.014166713,261.2444763,
1.015833378,260.7819519,
1.017500043,260.1101074,
1.019166708,261.3998718,
1.020833373,260.2413635,
1.022500038,263.2990112,
1.024166703,262.1123352,
1.025833368,262.4128418,
1.027500033,259.5322876,
1.029166698,260.5741577,
1.030833364,262.5307922,
1.032500029,261.5308228,
1.034166694,261.5121155,
1.035833359,261.7497559,
1.037500024,262.0964661,
1.039166689,259.8337708,
1.040833354,262.1650696,
1.042500019,262.8287659,
1.044166684,264.1465759,
1.045833349,261.5282593,
1.047500014,261.9508057,
1.049166679,262.5497131,
1.050833344,262.0581665,
1.05250001,261.6744995,
1.054166675,262.5921936,
1.05583334,263.1386414,
1.057500005,261.3328247,
1.05916667,261.7396545,
1.060833335,262.9242554,
1.0625,261.5731812,
1.064166665,262.0916138,
1.06583333,261.8440857,
1.067499995,261.4023743,
1.06916666,260.7236023,
1.070833325,261.105011,
1.07249999,262.8014832,
1.074166775,260.9803162,
1.07583344,260.9990845,
1.077499986,262.4249268,
1.079166651,263.2541809,
1.080833316,261.8939209,
1.0825001,261.9851685,
1.084166765,261.6471558,
1.085833311,260.5238037,
1.087499976,260.6394043,
1.089166641,261.9338379,
1.090833426,261.3678284,
1.092500091,261.3661804,
1.094166636,262.247406,
1.095833302,260.8277588,
1.097499967,262.073822,
1.099166751,261.1022034,
1.100833416,262.6856079,
1.102500081,261.4960327,
1.104166627,261.7325439,
1.105833292,260.4126587,
1.107500076,261.1227722,
1.109166741,261.4876709,
1.110833406,260.4338684,
1.112499952,261.4058838,
1.114166617,261.3611145,
1.115833402,259.7841797,
1.117500067,262.0691833,
1.119166732,263.0236206,
1.120833278,261.1431274,
1.122499943,262.5455322,
1.124166727,261.4510803,
1.125833392,262.5869141,
1.127500057,261.1883545,
1.129166722,261.2702332,
1.130833268,262.5157166,
1.132500052,260.6681213,
1.134166718,260.2118225,
1.135833383,262.0427856,
1.137500048,261.2055969,
1.139166594,261.01651,
1.140833378,262.5838623,
1.142500043,260.7349243,
1.144166708,261.57724,
1.145833373,260.8225098,
1.147499919,260.5203552,
1.149166703,261.7061157,
1.150833368,261.2154846,
1.152500033,261.4799805,
1.154166698,263.1072388,
1.155833364,262.5696106,
1.157500029,260.901123,
1.159166694,261.076355,
1.160833359,261.1849365,
1.162500024,261.9272156,
1.164166689,262.2649231,
1.165833354,261.6571655,
1.167500019,261.4046021,
1.169166684,259.9653015,
1.170833349,261.9104309,
1.172500014,261.2857971,
1.174166799,260.4936523,
1.175833344,262.6493835,
1.17750001,260.866333,
1.179166675,261.3711548,
1.18083334,263.6091309,
1.182500124,260.493103,
1.18416667,262.7441406,
1.185833335,260.6982117,
1.1875,261.2101746,
1.189166665,260.4259644,
1.190833449,260.6317139,
1.192499995,260.8272705,
1.19416666,261.2511597,
1.195833325,262.8728027,
1.19749999,261.7183533,
1.199166775,261.3311462,
1.20083344,262.2047729,
1.202499986,261.4908752,
1.204166651,261.6098938,
1.205833316,261.8559875,
1.2075001,262.4364624,
1.209166765,260.1593628,
1.210833311,262.2964172,
1.212499976,261.2090149,
1.214166641,262.1560059,
1.215833426,261.2540894,
1.217500091,261.6325073,
1.219166636,260.6123962,
1.220833302,262.7880859,
1.222499967,260.5414734,
1.224166751,263.646637,
1.225833416,264.9643555,
1.227500081,262.549469,
1.229166627,262.5442505,
1.230833292,262.6461792,
1.232500076,263.1737976,
1.234166741,261.7210388,
1.235833406,261.5185547,
1.237499952,261.2638855,
1.239166617,260.9234619,
1.240833402,262.2492065,
1.242500067,260.4981995,
1.244166732,260.5858459,
1.245833278,260.95401,
1.247499943,261.7595825,
1.249166727,261.6929016,
1.250833392,261.888031,
1.252500057,264.2935791,
1.254166722,262.1725464,
1.255833268,262.990448,
1.257500052,261.2532654,
1.259166718,261.8591003,
1.260833383,262.7232361,
1.262500048,262.6575012,
1.264166594,260.5327759,
1.265833378,260.8387146,
1.267500043,262.4165649,
1.269166708,260.6758423,
1.270833373,262.2410889,
1.272499919,262.4276428,
1.274166703,260.7730408,
1.275833368,261.793335,
1.277500033,261.2795715,
1.279166698,263.7788391,
1.280833364,263.4684753,
1.282500029,262.6253662,
1.284166694,260.1156921,
1.285833359,261.2183228,
1.287500024,260.7346802,
1.289166689,262.2369385,
1.290833354,261.2120361,
1.292500019,260.5858459,
1.294166684,261.2208252,
1.295833349,261.5809631,
1.297500014,261.8311157,
1.299166799,261.5583496,
1.300833344,262.353363,
1.30250001,262.6504517,
1.304166675,261.6566772,
1.30583334,261.8336182,
1.307500124,261.7752686,
1.30916667,259.6196899,
1.310833335,261.4633789,
1.3125,261.7402344,
1.314166665,260.854187,
1.315833449,261.7166138,
1.317499995,260.7968445,
1.31916666,261.43573,
1.320833325,261.6243896,
1.32249999,260.012146,
1.324166775,261.9368896,
1.32583344,262.5319214,
1.327499986,261.2556152,
1.329166651,261.9036865,
1.330833316,262.6096497,
1.3325001,262.7098694,
1.334166765,261.6873779,
1.335833311,262.3596802,
1.337499976,261.5037842,
1.339166641,262.709137,
1.340833426,261.6635437,
1.342500091,261.2962952,
1.344166636,263.0360718,
1.345833302,261.6455078,
1.347499967,262.2797241,
1.349166751,262.6056519,
1.350833416,262.7770691,
1.352500081,260.8135986,
1.354166627,260.7867126,
1.355833292,261.4289246,
1.357500076,263.03125,
1.359166741,260.8303833,
1.360833406,263.0871582,
1.362499952,262.1771545,
1.364166617,261.6121521,
1.365833402,260.7156982,
1.367500067,261.7998352,
1.369166732,261.7387085,
1.370833278,261.8904724,
1.372499943,263.6731262,
1.374166727,263.4666748,
1.375833392,263.287262,
1.377500057,262.8685608,
1.379166722,262.6029358,
1.380833268,261.7252808,
1.382500052,261.6859436,
1.384166718,261.0032349,
1.385833383,260.8650513,
1.387500048,260.652832,
1.389166594,261.2445374,
1.390833378,261.6651917,
1.392500043,261.7470703,
1.394166708,260.8414917,
1.395833373,263.7279968,
1.397499919,262.2328491,
1.399166703,261.9966431,
1.400833368,260.4004517,
1.402500033,261.9078369,
1.404166698,262.0723572,
1.405833364,262.8996582,
1.407500029,261.7741089,
1.409166694,259.9776611,
1.410833359,260.2832947,
1.412500024,263.6868286,
1.414166689,261.3482666,
1.415833354,261.2262268,
1.417500019,260.5406799,
1.419166684,260.5304565,
1.420833349,261.833374,
1.422500014,262.3323364,
1.424166799,263.5937805,
1.425833344,261.6387939,
1.42750001,261.045166,
1.429166675,262.3013611,
1.43083334,263.2110596,
1.432500124,260.9486694,
1.43416667,260.1274109,
1.435833335,262.1574097,
1.4375,262.0423584,
1.439166665,260.7248535,
1.440833449,260.9661255,
1.442499995,262.2932129,
1.44416666,262.7586365,
1.445833325,262.4909363,
1.44749999,261.9475098,
1.449166775,263.2869873,
1.45083344,261.8088074,
1.452499986,261.901886,
1.454166651,262.1486206,
1.455833316,262.0855103,
1.4575001,260.6408691,
1.459166765,262.6567078,
1.460833311,261.0005493,
1.462499976,262.1578979,
1.464166641,263.0683594,
1.465833426,260.7141724,
1.467500091,262.0284729,
1.469166636,260.8907166,
1.470833302,260.2185059,
1.472499967,261.0834656,
1.474166751,260.6578369,
1.475833416,262.4382629,
1.477500081,262.1915588,
1.479166627,262.4118042,
1.480833292,262.449646,
1.482500076,262.5201721,
1.484166741,261.7587891,
1.485833406,261.7104492,
1.487499952,261.73349,
1.489166617,262.7815552,
1.490833402,261.9879761,
1.492500067,261.4898376,
1.494166732,262.5681763,
1.495833278,262.0426636,
1.497499943,260.6055298,
1.499166727,260.7601929,
1.500833392,262.511261,
1.502500057,260.8609009,
1.504166722,261.9438782,
1.505833268,261.5673218,
1.507500052,263.9291077,
1.509166718,261.3941345,
1.510833383,261.2840881,
1.512500048,262.3199768,
1.514166594,262.5557251,
1.515833378,262.441803,
1.517500043,260.601593,
1.519166708,262.4381714,
1.520833373,261.8870544,
1.522499919,260.0924988,
1.524166703,261.1081238,
1.525833368,262.0726624,
1.527500033,263.1896973,
1.529166698,261.469574,
1.530833364,263.0977783,
1.532500029,261.1066284,
1.534166694,262.6449585,
1.535833359,262.3069153,
1.537500024,262.5897522,
1.539166689,261.3246155,
1.540833354,263.2255249,
1.542500019,261.8224182,
1.544166684,260.475769,
1.545833349,261.3080139,
1.547500014,261.3205261,
1.549166799,262.8385315,
1.550833344,263.0332336,
1.55250001,262.2862549,
1.554166675,261.3407288,
1.55583334,260.8835754,
1.557500124,260.3187561,
1.55916667,263.715271,
1.560833335,261.0602417,
1.5625,261.3910828,
1.564166665,263.0863953,
1.565833449,261.7215271,
1.567499995,261.9082642,
1.56916666,261.6572266,
1.570833325,261.4017334,
1.57249999,259.8661194,
1.574166775,261.3223877,
1.57583344,261.368866,
1.577499986,260.9857483,
1.579166651,259.796875,
1.580833316,261.9948425,
1.5825001,261.2278137,
1.584166765,263.1747437,
1.585833311,262.0016785,
1.587499976,261.6064453,
1.589166641,263.467804,
1.590833426,261.1351929,
1.592500091,262.6948547,
1.594166636,259.993866,
1.595833302,260.567688,
1.597499967,262.2915039,
1.599166751,262.4303284,
1.600833416,261.554657,
1.602500081,260.6912842,
1.604166627,260.8987427,
1.605833292,229.6860352,
1.607500076,221.6828766,
1.609166741,221.6005096,
1.610833406,225.844574,
1.612499952,224.8896179,
1.614166617,226.3774872,
1.615833402,241.3777466,
1.617500067,252.4096985,
1.619166732,254.6372375,
1.620833278,253.521347,
1.622499943,254.6520538,
1.624166727,253.665451,
1.625833392,254.6665955,
1.627500057,256.6902466,
1.629166722,254.6341705,
1.630833268,256.0386047,
1.632500052,235.892746,
1.634166718,248.5348969,
1.635833383,202.6872101,
1.637500048,249.8765259,
1.639166594,203.4187164,
1.640833378,214.312088,
1.642500043,201.6706238,
1.644166708,217.6594849,
1.645833373,228.9138184,
1.647499919,208.8573761,
1.649166703,242.6347198,
1.650833368,213.2333374,
1.652500033,242.3080902,
1.654166698,225.0480042,
1.655833364,214.7518616,
1.657500029,230.6420898,
1.659166694,204.9356689,
1.660833359,232.9510193,
1.662500024,211.6712494,
1.664166689,247.1427307,
1.665833354,250.5553436,
1.667500019,247.35289,
1.669166684,247.6315002,
1.670833349,247.9551086,
1.672500014,246.6963348,
1.674166799,246.2526093,
1.675833344,246.8814087,
1.67750001,243.6381836,
1.679166675,246.3958282,
1.68083334,244.9976501,
1.682500124,244.2255859,
1.68416667,243.4752045,
1.685833335,242.6236572,
1.6875,243.9723053,
1.689166665,242.6102753,
1.690833449,243.7444916,
1.692499995,242.514679,
1.69416666,241.9592285,
1.695833325,242.5858459,
1.69749999,242.743576,
1.699166775,241.6403351,
1.70083344,243.1965485,
1.702499986,240.2819672,
1.704166651,241.2575378,
1.705833316,240.9347229,
1.7075001,241.4541931,
1.709166765,240.2879333,
1.710833311,240.2518768,
1.712499976,239.451004,
1.714166641,240.2703857,
1.715833426,239.134079,
1.717500091,238.6888733,
1.719166636,239.8021088,
1.720833302,238.7844238,
1.722499967,237.5773926,
1.724166751,237.705658,
1.725833416,238.3513947,
1.727500081,238.098526,
1.729166627,236.834137,
1.730833292,235.6977386,
1.732500076,237.0625763,
1.734166741,237.3978424,
1.735833406,236.8631287,
1.737499952,236.5861206,
1.739166617,235.3174896,
1.740833402,235.832901,
1.742500067,234.1167755,
1.744166732,234.6329193,
1.745833278,234.5214081,
1.747499943,233.7136841,
1.749166727,236.1428833,
1.750833392,234.0241852,
1.752500057,235.1739807,
1.754166722,234.5934601,
1.755833268,233.5699768,
1.757500052,234.0470734,
1.759166718,233.9369659,
1.760833383,234.7945251,
1.762500048,234.5732574,
1.764166594,232.866333,
1.765833378,232.3785248,
1.767500043,232.4567261,
1.769166708,233.0105438,
1.770833373,232.6424713,
1.772499919,232.8992767,
1.774166703,230.5108643,
1.775833368,233.000473,
1.777500033,233.2582245,
1.779166698,230.9643402,
1.780833364,231.2169189,
1.782500029,229.0381927,
1.784166694,232.1062164,
1.785833359,230.7928162,
1.787500024,231.6528778,
1.789166689,230.5401611,
1.790833354,230.7809143,
1.792500019,230.2902985,
1.794166684,231.338501,
1.795833349,232.2003021,
1.797500014,230.3272095,
1.799166799,231.3669891,
1.800833344,229.1735382,
1.80250001,229.0554352,
1.804166675,229.1386871,
1.80583334,230.2749939,
1.807500124,229.4012909,
1.80916667,229.8117676,
1.810833335,229.2101593,
1.8125,228.5233612,
1.814166665,228.5267334,
1.815833449,228.0448456,
1.817499995,227.592453,
1.81916666,228.5731201,
1.820833325,227.4685669,
1.82249999,229.2594147,
1.824166775,228.1442719,
1.82583344,226.2736816,
1.827499986,226.9594879,
1.829166651,226.5415497,
1.830833316,227.3945923,
1.8325001,225.2942047,
1.834166765,227.7894135,
1.835833311,227.6976166,
1.837499976,225.392334,
1.839166641,225.8364716,
1.840833426,226.848465,
1.842500091,227.8226624,
1.844166636,227.9418488,
1.845833302,224.7136383,
1.847499967,225.4154358,
1.849166751,226.7511139,
1.850833416,226.0713043,
1.852500081,225.8473358,
1.854166627,226.2198792,
1.855833292,227.4927979,
1.857500076,225.4350128,
1.859166741,226.5540314,
1.860833406,226.9896698,
1.862499952,226.0587921,
1.864166617,227.2808838,
1.865833402,225.5540314,
1.867500067,223.2595673,
1.869166732,226.3099365,
1.870833278,224.0476685,
1.872499943,224.9382629,
1.874166727,225.780365,
1.875833392,223.982193,
1.877500057,225.2932129,
1.879166722,224.79216,
1.880833268,224.0383301,
1.882500052,225.5228271,
1.884166718,223.2118378,
1.885833383,223.154007,
1.887500048,223.8820038,
1.889166594,224.3738861,
1.890833378,223.2539825,
1.892500043,225.1394196,
1.894166708,222.9355011,
1.895833373,224.012146,
1.897499919,223.7417297,
1.899166703,224.6112671,
1.900833368,224.2618256,
1.902500033,222.411499,
1.904166698,224.5222473,
1.905833364,223.0131683,
1.907500029,224.2806702,
1.909166694,221.0242157,
1.910833359,222.4937897,
1.912500024,223.0302734,
1.914166689,222.8914948,
1.915833354,224.2282562,
1.917500019,222.0862732,
1.919166684,222.7549286,
1.920833349,221.8022308,
1.922500014,221.7319336,
1.924166799,221.148056,
1.925833344,222.3333435,
1.92750001,221.7497559,
1.929166675,222.1172333,
1.93083334,221.4714203,
1.932500124,221.2612915,
1.93416667,220.6927948,
1.935833335,222.6951447,
1.9375,222.0799103,
1.939166665,220.5345306,
1.940833449,222.1373138,
1.942499995,220.2898102,
1.94416666,221.450882,
1.945833325,222.0233612,
1.94749999,221.5305176,
1.949166775,221.7854919,
1.95083344,220.4756012,
1.952499986,219.5229492,
1.954166651,220.9346619,
1.955833316,219.6253204,
1.9575001,222.2674866,
1.959166765,220.6133728,
1.960833311,219.0876465,
1.962499976,220.4429016,
1.964166641,221.0134735,
1.965833426,219.6608734,
1.967500091,221.1492767,
1.969166636,218.3099823,
1.970833302,220.9426727,
1.972499967,220.8821869,
1.974166751,218.5967712,
1.975833416,218.6652527,
1.977500081,219.26828,
1.979166627,219.0233307,
1.980833292,219.0604401,
1.982500076,218.3344879,
1.984166741,217.9356842,
1.985833406,219.6444702,
1.987499952,220.8687439,
1.989166617,218.7605286,
1.990833402,220.538208,
1.992500067,219.0726776,
1.994166732,218.6393585,
1.995833278,218.5622406,
1.997499943,218.5171356,
1.999166727,217.7655029,
2.000833273,217.1003723,
2.002500057,219.5592194,
2.004166603,217.9231567,
2.005833387,220.1165771,
2.007500172,217.4556274,
2.009166718,219.4266052,
2.010833263,217.594986,
2.012500048,219.2103119,
2.014166594,218.4862366,
2.015833378,218.9346008,
2.017500162,217.1915894,
2.019166708,219.0123749,
2.020833254,217.2468414,
2.022500038,217.6387939,
2.024166822,218.2315826,
2.025833368,217.580307,
2.027499914,217.377594,
2.029166698,216.7163696,
2.030833244,217.1920166,
2.032500029,216.9756775,
2.034166813,217.2351685,
2.035833359,217.7708893,
2.037499905,217.0413361,
2.039166689,217.7182007,
2.040833473,217.506546,
2.042500019,218.2335968,
2.044166803,217.3577423,
2.045833349,216.5948944,
2.047499895,216.5312653,
2.049166679,216.0371552,
2.050833464,216.3571777,
2.05250001,218.2746124,
2.054166555,215.9480438,
2.05583334,216.8619537,
2.057500124,216.8086395,
2.05916667,216.359848,
2.060833454,217.2849274,
2.0625,215.0411682,
2.064166546,216.1221924,
2.06583333,216.4458313,
2.067500114,217.4787598,
2.06916666,216.9944153,
2.070833445,216.7252655,
2.07249999,215.5503387,
2.074166775,217.609787,
2.075833321,216.1147308,
2.077500105,214.9758301,
2.079166651,216.5771942,
2.080833197,216.8744659,
2.082499981,215.1468964,
2.084166765,215.789978,
2.085833311,216.6871796,
2.087500095,216.1781158,
2.089166641,216.1213989,
2.090833426,216.5104523,
2.092499971,216.7155457,
2.094166756,215.4125671,
2.095833302,215.1075745,
2.097500086,216.1901703,
2.099166632,215.1610107,
2.100833416,214.9285126,
2.102499962,215.3040619,
2.104166746,215.1342621,
2.105833292,213.7551727,
2.107500076,215.6130676,
2.109166622,214.5660706,
2.110833406,214.3577271,
2.112499952,213.0776215,
2.114166737,214.3181305,
2.115833521,214.2357941,
2.117500067,214.5981903,
2.119166613,214.9282684,
2.120833397,216.094162,
2.122499943,215.6282654,
2.124166727,213.8162384,
2.125833273,214.6652527,
2.127500057,213.6880798,
2.129166603,215.8424225,
2.130833387,213.6182861,
2.132500172,213.9143982,
2.134166718,215.6318054,
2.135833502,214.7570038,
2.137500048,214.1487579,
2.139166832,214.7851715,
2.140833378,214.0792084,
2.142500162,214.3232269,
2.144166708,214.9643555,
2.145833254,213.6286163,
2.147500038,215.4482574,
2.149166584,213.8934784,
2.150833368,213.2525482,
2.152500153,214.8856049,
2.154166698,215.336441,
2.155833483,212.7641296,
2.157500029,214.5381927,
2.159166813,213.1445923,
2.160833597,213.1922607,
2.162499905,213.357193,
2.164166689,212.9517975,
2.165833235,215.8113098,
2.167500019,214.5412445,
2.169166803,214.2852936,
2.170833349,212.5631561,
2.172500134,213.3070374,
2.174166679,213.3345184,
2.175833464,213.8363953,
2.177500248,213.701767,
2.179166555,213.9409637,
2.18083334,214.1326904,
2.182499886,212.090332,
2.18416667,214.2132263,
2.185833454,212.7421417,
2.1875,214.115448,
2.189166784,212.15802,
2.19083333,213.2905273,
2.192500114,213.2532959,
2.194166899,213.5883942,
2.195833445,212.6385651,
2.19749999,212.6040649,
2.199166536,211.8643036,
2.200833321,212.4593658,
2.202500105,212.9006042,
2.204166651,211.7058716,
2.205833435,212.926239,
2.207499981,213.8500824,
2.209166765,213.1478119,
2.210833549,211.7984772,
2.212500095,211.8673553,
2.21416688,213.7888336,
2.215833187,211.584671,
2.217499971,212.5214081,
2.219166756,210.9473572,
2.220833302,211.4141083,
2.222500086,212.4923096,
2.224166632,212.5721436,
2.225833416,212.592926,
2.2275002,212.5041656,
2.229166746,212.5328369,
2.23083353,212.5659332,
2.232499838,211.6216736,
2.234166622,213.4394836,
2.235833406,212.8661652,
2.237499952,211.4550018,
2.239166737,211.6115723,
2.240833282,212.0951996,
2.242500067,212.6614227,
2.244166851,212.501297,
2.245833397,211.9099274,
2.247500181,212.3964539,
2.249166727,213.3567505,
2.250833273,212.2084656,
2.252500057,211.3715973,
2.254166603,214.9006042,
2.255833387,211.0614319,
2.257499933,212.1976013,
2.259166718,211.9267426,
2.260833502,211.9873199,
2.262500048,212.174942,
2.264166832,211.7218781,
2.265833378,210.5316925,
2.267500162,212.4628906,
2.269166708,212.039978,
2.270833254,211.5956268,
2.272500038,210.287262,
2.274166584,211.4133911,
2.275833368,211.6672974,
2.277500153,211.325119,
2.279166698,211.2731934,
2.280833483,210.8878021,
2.282500029,211.8565216,
2.284166813,211.4020081,
2.285833597,211.4927826,
2.287499905,211.3837738,
2.289166689,211.1782837,
2.290833235,211.0169373,
2.292500019,211.0614624,
2.294166803,212.0883789,
2.295833349,210.505127,
2.297500134,213.4692841,
2.299166679,210.6812744,
2.300833464,210.0037994,
2.302500248,211.9471588,
2.304166555,210.5389404,
2.30583334,212.2221222,
2.307499886,210.1916962,
2.30916667,210.9273376,
2.310833454,210.0540161,
2.3125,210.6340027,
2.314166784,210.2259827,
2.31583333,210.9626312,
2.317500114,210.5638733,
2.319166899,211.3036499,
2.320833445,211.7396698,
2.32249999,210.6323242,
2.324166536,210.4720459,
2.325833321,210.3011627,
2.327500105,210.0068665,
2.329166651,209.5809784,
2.330833435,211.2880859,
2.332499981,209.9313202,
2.334166765,209.772171,
2.335833549,209.7603455,
2.337500095,209.888031,
2.33916688,210.2151489,
2.340833187,209.8244324,
2.342499971,210.225769,
2.344166756,210.0424652,
2.345833302,209.246582,
2.347500086,209.9167786,
2.349166632,209.4982452,
2.350833416,210.5839233,
2.3525002,209.6255188,
2.354166746,210.7535553,
2.35583353,209.9939575,
2.357499838,208.6780853,
2.359166622,211.7869263,
2.360833406,209.2852936,
2.362499952,209.8447266,
2.364166737,210.6383362,
2.365833282,209.4094849,
2.367500067,209.6288605,
2.369166851,209.3177032,
2.370833397,209.7605896,
2.372500181,208.5327148,
2.374166727,209.3011322,
2.375833273,209.6524506,
2.377500057,209.9672241,
2.379166603,210.4264221,
2.380833387,210.124649,
2.382499933,209.9423981,
2.384166718,209.6249237,
2.385833502,210.0574799,
2.387500048,209.9520416,
2.389166832,210.240387,
2.390833378,208.2116852,
2.392500162,210.7026825,
2.394166708,209.8116302,
2.395833254,208.342865,
2.397500038,209.3925476,
2.399166584,209.2053223,
2.400833368,208.5978699,
2.402500153,209.5361328,
2.404166698,208.3244171,
2.405833483,209.9794312,
2.407500029,208.3363953,
2.409166813,208.4173279,
2.410833597,209.063797,
2.412499905,208.6473083,
2.414166689,210.1849518,
2.415833235,209.8800049,
2.417500019,209.8659058,
2.419166803,209.9723358,
2.420833349,209.0890808,
2.422500134,209.3578949,
2.424166679,208.8952026,
2.425833464,209.3528442,
2.427500248,208.102829,
2.429166555,209.8383331,
2.43083334,208.9288788,
2.432499886,209.1409607,
2.43416667,209.1279602,
2.435833454,209.6368103,
2.4375,208.5167694,
2.439166784,208.1235657,
2.44083333,208.3143463,
2.442500114,208.2255096,
2.444166899,208.0673981,
2.445833445,210.4185791,
2.44749999,209.742691,
2.449166536,209.7303314,
2.450833321,208.8631592,
2.452500105,208.524765,
2.454166651,209.0147858,
2.455833435,208.1114349,
2.457499981,208.4684601,
2.459166765,209.1308899,
2.460833549,209.4000702,
2.462500095,208.2369232,
2.46416688,208.1919708,
2.465833187,208.7290497,
2.467499971,209.687088,
2.469166756,209.2724915,
2.470833302,208.0716248,
2.472500086,208.5580597,
2.474166632,208.088913,
2.475833416,208.562973,
2.4775002,208.6232147,
2.479166746,208.1167145,
2.48083353,207.1243896,
2.482499838,209.1639862,
2.484166622,208.5129852,
2.485833406,207.3274536,
2.487499952,208.0478821,
2.489166737,208.1956024,
2.490833282,209.309906,
2.492500067,206.8176422,
2.494166851,207.3681946,
2.495833397,208.1903687,
2.497500181,207.6905365,
2.499166727,207.5862427,
2.500833273,207.2944489,
2.502500057,209.3137817,
2.504166603,207.8057709,
2.505833387,207.8021393,
2.507499933,207.8280487,
2.509166718,208.0445404,
2.510833502,208.3623047,
2.512500048,207.4071045,
2.514166832,208.7232513,
2.515833378,206.5450592,
2.517500162,207.3412628,
2.519166708,208.4675446,
2.520833254,207.076828,
2.522500038,208.3773804,
2.524166584,207.4929962,
2.525833368,208.1901093,
2.527500153,209.2025299,
2.529166698,207.1526794,
2.530833483,206.7292786,
2.532500029,208.0382538,
2.534166813,207.6270447,
2.535833597,206.1541443,
2.537499905,208.5236053,
2.539166689,206.246048,
2.540833235,207.4897308,
2.542500019,207.6885834,
2.544166803,207.9936523,
2.545833349,207.649826,
2.547500134,207.2855835,
2.549166679,207.8682251,
2.550833464,208.2710114,
2.552500248,206.6029358,
2.554166555,207.2429657,
2.55583334,207.280899,
2.557499886,208.0041962,
2.55916667,208.4102478,
2.560833454,206.6594696,
2.5625,207.4179993,
2.564166784,206.0126801,
2.56583333,209.6679688,
2.567500114,207.5996094,
2.569166899,206.9895172,
2.570833445,207.4137115,
2.57249999,207.7324066,
2.574166536,207.4115295,
2.575833321,207.0903015,
2.577500105,207.3998871,
2.579166651,207.7351685,
2.580833435,207.9812317,
2.582499981,206.9737396,
2.584166765,206.2963257,
2.585833549,206.3483887,
2.587500095,206.7951355,
2.58916688,207.266571,
2.590833187,206.1163788,
2.592499971,207.5947113,
2.594166756,207.9612427,
2.595833302,206.3476563,
2.597500086,207.5968933,
2.599166632,208.722641,
2.600833416,207.2453918,
2.6025002,207.9431305,
2.604166746,207.0797729,
2.60583353,207.1209106,
2.607499838,205.186554,
2.609166622,207.8099976,
2.610833406,205.4832153,
2.612499952,206.5701599,
2.614166737,207.5018158,
2.615833282,205.4904022,
2.617500067,206.0127869,
2.619166851,206.738739,
2.620833397,206.0082245,
2.622500181,206.99617,
2.624166727,207.5221405,
2.625833273,207.0251312,
2.627500057,206.2507477,
2.629166603,206.870224,
2.630833387,207.18396,
2.632499933,206.6231079,
2.634166718,206.4447784,
2.635833502,207.4903717,
2.637500048,207.4864502,
2.639166832,205.6863556,
2.640833378,207.1820374,
2.642500162,207.3710785,
2.644166708,207.6260529,
2.645833254,205.6091614,
2.647500038,207.8139343,
2.649166584,206.571106,
2.650833368,208.1174927,
2.652500153,207.9754333,
2.654166698,206.0984802,
2.655833483,207.3396301,
2.657500029,205.9520416,
2.659166813,204.6025848,
2.660833597,207.0703888,
2.662499905,206.3120422,
2.664166689,205.8682251,
2.665833235,207.5222168,
2.667500019,207.8981171,
2.669166803,206.2773438,
2.670833349,206.4091339,
2.672500134,205.6621857,
2.674166679,204.9606323,
2.675833464,205.8638763,
2.677500248,207.0295105,
2.679166555,207.8700562,
2.68083334,206.2237701,
2.682499886,206.0788116,
2.68416667,206.088089,
2.685833454,206.5686951,
2.6875,206.8022919,
2.689166784,206.5565338,
2.69083333,205.5953369,
2.692500114,207.0499573,
2.694166899,205.9905396,
2.695833445,206.2562866,
2.69749999,207.2629395,
2.699166536,206.3034668,
2.700833321,206.0763397,
2.702500105,206.4972076,
2.704166651,207.2004547,
2.705833435,206.1937256,
2.707499981,206.9032288,
2.709166765,206.1584167,
2.710833549,206.7188416,
2.712500095,206.003418,
2.71416688,206.3591461,
2.715833187,205.7970276,
2.717499971,205.3416595,
2.719166756,206.0899658,
2.720833302,205.2023468,
2.722500086,206.2555695,
2.724166632,205.4838104,
2.725833416,206.0150452,
2.7275002,204.1835785,
2.729166746,205.3516388,
2.73083353,204.7102661,
2.732499838,206.0422974,
2.734166622,205.4502716,
2.735833406,206.5794373,
2.737499952,206.71138,
2.739166737,204.1145172,
2.740833282,206.0013123,
2.742500067,205.270813,
2.744166851,207.2416534,
2.745833397,204.9129181,
2.747500181,205.4154663,
2.749166727,205.2614594,
2.750833273,206.8770752,
2.752500057,205.6521301,
2.754166603,206.6196289,
2.755833387,206.5481873,
2.757499933,205.797226,
2.759166718,206.6768494,
2.760833502,206.2202301,
2.762500048,206.3077393,
2.764166832,206.3827209,
2.765833378,205.4447937,
2.767500162,205.4639282,
2.769166708,205.6151428,
2.770833254,205.7361755,
2.772500038,203.8619232,
2.774166584,205.3210297,
2.775833368,205.4366302,
2.777500153,205.1952209,
2.779166698,206.1118317,
2.780833483,205.4752197,
2.782500029,205.299469,
2.784166813,206.3010712,
2.785833597,205.4045258,
2.787499905,206.0966187,
2.789166689,206.335144,
2.790833235,203.1429901,
2.792500019,205.6468048,
2.794166803,206.4165039,
2.795833349,204.1390076,
2.797500134,205.0985565,
2.799166679,203.6422424,
2.800833464,204.5679474,
2.802500248,206.1383209,
2.804166555,206.0036469,
2.80583334,205.2600708,
2.807499886,205.9326324,
2.80916667,204.8728333,
2.810833454,204.4174347,
2.8125,204.3827209,
2.814166784,204.948761,
2.81583333,205.9410553,
2.817500114,204.5647278,
2.819166899,206.4457855,
2.820833445,205.6207123,
2.82249999,206.3652649,
2.824166536,204.1913147,
2.825833321,204.1876221,
2.827500105,204.9614563,
2.829166651,204.3540039,
2.830833435,205.544754,
2.832499981,205.9617615,
2.834166765,204.2030182,
2.835833549,205.8258972,
2.837500095,205.1434021,
2.83916688,205.1300049,
2.840833187,204.6581268,
2.842499971,205.3955994,
2.844166756,204.9842834,
2.845833302,203.8769073,
2.847500086,206.1090393,
2.849166632,204.6023865,
2.850833416,204.3390503,
2.8525002,204.6244659,
2.854166746,205.7120819,
2.85583353,205.8241272,
2.857499838,203.9919128,
2.859166622,206.1051636,
2.860833406,205.077301,
2.862499952,205.4676361,
2.864166737,205.6217957,
2.865833282,205.4695282,
2.867500067,205.3991699,
2.869166851,203.3942566,
2.870833397,203.9140167,
2.872500181,204.9741516,
2.874166727,205.2661133,
2.875833273,203.6717529,
2.877500057,206.0003052,
2.879166603,204.3929596,
2.880833387,204.3391876,
2.882499933,203.687088,
2.884166718,205.9152832,
2.885833502,203.850769,
2.887500048,205.4572144,
2.889166832,203.4179077,
2.890833378,206.0464478,
2.892500162,204.7776184,
2.894166708,205.0888672,
2.895833254,206.1298065,
2.897500038,204.8191986,
2.899166584,203.4150848,
2.900833368,204.9933929,
2.902500153,204.7455139,
2.904166698,204.3290405,
2.905833483,204.2086792,
2.907500029,205.4803162,
2.909166813,204.2285309,
2.910833597,204.6078186,
2.912499905,203.8657379,
2.914166689,204.2723999,
2.915833235,204.4970551,
2.917500019,205.4810944,
2.919166803,204.1292877,
2.920833349,204.4198151,
2.922500134,204.3571777,
2.924166679,204.9291229,
2.925833464,205.8215637,
2.927500248,204.9396973,
2.929166555,205.1530304,
2.93083334,203.2606049,
2.932499886,204.2817993,
2.93416667,204.9653473,
2.935833454,205.8457642,
2.9375,204.6177979,
2.939166784,204.2626953,
2.94083333,202.3661194,
2.942500114,203.6521454,
2.944166899,203.5790253,
2.945833445,203.5583649,
2.94749999,205.6640015,
2.949166536,204.0017395,
2.950833321,204.6663666,
2.952500105,203.9600067,
2.954166651,204.7424774,
2.955833435,203.6797485,
2.957499981,202.0026855,
2.959166765,204.0391235,
2.960833549,203.4584808,
2.962500095,204.4964142,
2.96416688,204.0275574,
2.965833187,203.7386169,
2.967499971,203.9149475,
2.969166756,202.279541,
2.970833302,203.1804047,
2.972500086,203.6444397,
2.974166632,203.0273438,
2.975833416,203.4454498,
2.9775002,204.4964294,
2.979166746,203.6731567,
2.98083353,203.9971466,
2.982499838,204.4288788,
2.984166622,203.3675537,
2.985833406,204.3633118,
2.987499952,204.780899,
2.989166737,204.6123047,
2.990833282,204.0410919,
2.992500067,203.4242096,
2.994166851,204.9255066,
2.995833397,206.3041687,
2.997500181,204.0109711,
2.999166727,203.5863342,
3.000833273,204.5401459,
3.002500057,204.1657715,
3.004166603,204.6776886,
3.005833387,203.3408356,
3.007499933,203.2633972,
3.009166718,202.9134979,
3.010833502,204.2659454,
3.012500048,202.8455811,
3.014166832,202.6516876,
3.015833378,203.995224,
3.017500162,203.9468384,
3.019166708,204.3791656,
3.020833254,202.6807404,
3.022500038,203.5566864,
3.024166584,202.1112366,
3.025833368,203.5283508,
3.027500153,204.1515503,
3.029166698,202.966095,
3.030833483,202.7605591,
3.032500029,204.8107147,
3.034166813,202.1915741,
3.035833597,204.6038055,
3.037499905,205.5612946,
3.039166689,204.0295715,
3.040833235,204.5224609,
3.042500019,204.5361176,
3.044166803,203.6669464,
3.045833349,203.6577454,
3.047500134,203.2051086,
3.049166679,203.0690918,
3.050833464,202.7494812,
3.052500248,203.5446167,
3.054166555,203.0877075,
3.05583334,203.8980255,
3.057499886,203.6209412,
3.05916667,204.2480164,
3.060833454,203.623642,
3.0625,203.3631134,
3.064166784,203.6232758,
3.06583333,203.0621643,
3.067500114,203.9969025,
3.069166899,203.7359314,
3.070833445,203.8180695,
3.07249999,204.2766418,
3.074166536,205.4214935,
3.075833321,205.2530823,
3.077500105,205.2921906,
3.079166651,204.6959076,
3.080833435,201.7589417,
3.082499981,203.0725555,
3.084166765,202.3512421,
3.085833549,204.1463318,
3.087500095,203.1038971,
3.08916688,203.2950287,
3.090833187,203.0815735,
3.092499971,203.852417,
3.094166756,203.1868896,
3.095833302,204.2351379,
3.097500086,203.6542206,
3.099166632,204.0550232,
3.100833416,203.6447601,
3.1025002,202.4389648,
3.104166746,204.1168365,
3.10583353,203.2657318,
3.107499838,204.1573639,
3.109166622,202.2474518,
3.110833406,202.7511139,
3.112499952,202.4145203,
3.114166737,203.0372772,
3.115833282,202.6206512,
3.117500067,201.7568512,
3.119166851,203.2764893,
3.120833397,203.5998383,
3.122500181,204.3886261,
3.124166727,202.7189941,
3.125833273,202.6255493,
3.127500057,202.1428223,
3.129166603,203.8780365,
3.130833387,202.5621185,
3.132499933,204.171463,
3.134166718,203.0750885,
3.135833502,202.7426605,
3.137500048,203.1018524,
3.139166832,201.8621674,
3.140833378,203.8887634,
3.142500162,203.5411224,
3.144166708,204.249176,
3.145833254,201.59729,
3.147500038,202.7132568,
3.149166584,202.4126282,
3.150833368,204.4588013,
3.152500153,202.638443,
3.154166698,203.342514,
3.155833483,203.1986389,
3.157500029,203.3252258,
3.159166813,204.6930695,
3.160833597,202.3952942,
3.162499905,201.9045868,
3.164166689,203.4634399,
3.165833235,203.0374908,
3.167500019,204.3476105,
3.169166803,201.6977692,
3.170833349,202.3808136,
3.172500134,202.4476624,
3.174166679,202.4284973,
3.175833464,202.8502045,
3.177500248,203.0598145,
3.179166555,202.6280975,
3.18083334,203.9505768,
3.182499886,202.6197205,
3.18416667,204.2467194,
3.185833454,202.1047668,
3.1875,202.8175964,
3.189166784,204.4429779,
3.19083333,203.3424683,
3.192500114,201.3757477,
3.194166899,203.3274689,
3.195833445,202.3449097,
3.19749999,202.361908,
3.199166536,203.0388031,
3.200833321,201.694397,
3.202500105,201.8027954,
3.204166651,202.871994,
3.205833435,203.7947083,
3.207499981,202.9215851,
3.209166765,202.2503815,
3.210833549,201.1973114,
3.212500095,202.5697632,
3.21416688,203.3813934,
3.215833187,201.8936615,
3.217499971,202.3211517,
3.219166756,202.6742249,
3.220833302,203.4180756,
3.222500086,202.7552948,
3.224166632,202.7367859,
3.225833416,203.1397247,
3.2275002,201.9143829,
3.229166746,201.5928192,
3.23083353,202.4334106,
3.232499838,202.0396881,
3.234166622,203.7963409,
3.235833406,203.0184784,
3.237499952,202.9788208,
3.239166737,203.0593262,
3.240833282,202.3591309,
3.242500067,203.1087952,
3.244166851,201.8222809,
3.245833397,202.4966431,
3.247500181,202.1049347,
3.249166727,203.1064148,
3.250833273,202.9942627,
3.252500057,202.6415405,
3.254166603,201.3097687,
3.255833387,202.2075043,
3.257499933,203.2819977,
3.259166718,202.5801392,
3.260833502,203.2739258,
3.262500048,202.2606049,
3.264166832,201.9852295,
3.265833378,202.613205,
3.267500162,201.8116913,
3.269166708,201.2649384,
3.270833254,201.6403961,
3.272500038,202.6533203,
3.274166584,202.4358673,
3.275833368,202.456665,
3.277500153,202.085083,
3.279166698,202.2094269,
3.280833483,202.458313,
3.282500029,202.0115662,
3.284166813,201.7529755,
3.285833597,201.6087952,
3.287499905,202.7551727,
3.289166689,201.5472565,
3.290833235,202.3968811,
3.292500019,202.773056,
3.294166803,202.980011,
3.295833349,202.4333038,
3.297500134,202.950592,
3.299166679,202.0942993,
3.300833464,202.5263977,
3.302500248,202.4032135,
3.304166555,203.3797607,
3.30583334,202.3927155,
3.307499886,203.5029755,
3.30916667,203.2224884,
3.310833454,202.1448212,
3.3125,203.4119568,
3.314166784,203.5971375,
3.31583333,201.9674683,
3.317500114,201.7206268,
3.319166899,202.0886383,
3.320833445,203.1056366,
3.32249999,202.3087158,
3.324166536,201.985672,
3.325833321,201.8551941,
3.327500105,204.2890625,
3.329166651,202.1496124,
3.330833435,201.8060455,
3.332499981,202.1763763,
3.334166765,201.615921,
3.335833549,201.6119843,
3.337500095,202.4755554,
3.33916688,201.6121979,
3.340833187,201.6000519,
3.342499971,203.0631714,
3.344166756,201.1586609,
3.345833302,203.2260284,
3.347500086,202.4765625,
3.349166632,202.6379242,
3.350833416,202.4046783,
3.3525002,202.8135681,
3.354166746,202.285202,
3.35583353,203.2203979,
3.357499838,201.681488,
3.359166622,202.7773895,
3.360833406,200.854187,
3.362499952,201.3989258,
3.364166737,201.4043274,
3.365833282,201.6788177,
3.367500067,201.762558,
3.369166851,201.9412384,
3.370833397,201.1763916,
3.372500181,202.5536499,
3.374166727,203.6458893,
3.375833273,200.8582916,
3.377500057,202.6186523,
3.379166603,201.5327454,
3.380833387,201.7566376,
3.382499933,201.637085,
3.384166718,202.0276489,
3.385833502,203.1532898,
3.387500048,203.1748199,
3.389166832,202.4827576,
3.390833378,202.2818604,
3.392500162,201.6998901,
3.394166708,203.6422119,
3.395833254,202.9008942,
3.397500038,201.5919189,
3.399166584,202.4565887,
3.400833368,204.2155609,
3.402500153,200.3059998,
3.404166698,201.3531494,
3.405833483,201.6001129,
3.407500029,202.3433228,
3.409166813,203.1451416,
3.410833597,202.0835266,
3.412499905,202.2579193,
3.414166689,203.0348969,
3.415833235,201.6567535,
3.417500019,202.3032532,
3.419166803,202.1344299,
3.420833349,201.975296,
3.422500134,200.6282349,
3.424166679,202.0141296,
3.425833464,201.0719757,
3.427500248,202.292038,
3.429166555,202.6835175,
3.43083334,202.6037445,
3.432499886,202.9485321,
3.43416667,201.4558868,
3.435833454,201.7408295,
3.4375,202.9891968,
3.439166784,202.381958,
3.44083333,202.5421448,
3.442500114,202.4799805,
3.444166899,202.3040619,
3.445833445,202.2061157,
3.44749999,201.6499023,
3.449166536,201.8521423,
3.450833321,202.0489502,
3.452500105,201.6494141,
3.454166651,202.4577332,
3.455833435,201.3212585,
3.457499981,202.5724335,
3.459166765,203.9027557,
3.460833549,201.5587921,
3.462500095,201.7323761,
3.46416688,201.8342896,
3.465833187,201.9242859,
3.467499971,201.1652222,
3.469166756,199.90065,
3.470833302,202.0608368,
3.472500086,202.1004791,
3.474166632,200.7131958,
3.475833416,202.6677704,
3.4775002,201.0568237,
3.479166746,201.5499878,
3.48083353,201.7621613,
3.482499838,200.5134735,
3.484166622,201.2900696,
3.485833406,200.7270508,
3.487499952,202.0810547,
3.489166737,202.0485992,
3.490833282,202.2924652,
3.492500067,201.6665955,
3.494166851,201.9178467,
3.495833397,200.911911,
3.497500181,200.716095,
3.499166727,202.1692963,
3.500833273,202.1263733,
3.502500057,201.1395416,
3.504166603,201.785141,
3.505833387,202.2345734,
3.507499933,200.9600677,
3.509166718,203.083374,
3.510833502,201.745636,
3.512500048,201.750351,
3.514166832,201.2757111,
3.515833378,201.1679688,
3.517500162,200.8562469,
3.519166708,200.2384033,
3.520833254,201.1906738,
3.522500038,200.6737671,
3.524166584,201.3638458,
3.525833368,200.815567,
3.527500153,200.6739502,
3.529166698,200.9765472,
3.530833483,201.671051,
3.532500029,201.8886871,
3.534166813,202.4708557,
3.535833597,200.9953308,
3.537499905,202.3345795,
3.539166689,202.2059479,
3.540833235,201.1428833,
3.542500019,201.6884003,
3.544166803,201.8191071,
3.545833349,202.2463531,
3.547500134,199.6650543,
3.549166679,200.7263794,
3.550833464,201.7698975,
3.552500248,201.9846191,
3.554166555,201.5810699,
3.55583334,202.6306763,
3.557499886,201.4866791,
3.55916667,201.8896332,
3.560833454,201.628067,
3.5625,201.0924683,
3.564166784,201.6871338,
3.56583333,202.0477295,
3.567500114,200.179245,
3.569166899,201.4178925,
3.570833445,200.5183105,
3.57249999,201.4428711,
3.574166536,201.6588745,
3.575833321,201.2605286,
3.577500105,200.898056,
3.579166651,201.0410919,
3.580833435,201.9850922,
3.582499981,201.6526031,
3.584166765,200.1673126,
3.585833549,201.0232849,
3.587500095,201.7342529,
3.58916688,199.8874664,
3.590833187,200.9561462,
3.592499971,200.3467712,
3.594166756,201.4565125,
3.595833302,200.9032135,
3.597500086,201.3652344,
3.599166632,201.3460541,
3.600833416,201.4987946,
3.6025002,201.0834808,
3.604166746,201.6222382,
3.60583353,201.4822693,
3.607499838,200.5050659,
3.609166622,201.651001,
3.610833406,201.0620728,
3.612499952,199.9955139,
3.614166737,200.9298553,
3.615833282,200.2805176,
3.617500067,201.2677307,
3.619166851,201.6349182,
3.620833397,200.408493,
3.622500181,201.2819672,
3.624166727,201.5492096,
3.625833273,200.7360382,
3.627500057,202.4601288,
3.629166603,201.9537354,
3.630833387,201.7403564,
3.632499933,201.1060486,
3.634166718,202.1689911,
3.635833502,201.828537,
3.637500048,201.2707825,
3.639166832,201.5670013,
3.640833378,201.0027466,
3.642500162,200.7820282,
3.644166708,201.4362488,
3.645833254,201.26651,
3.647500038,201.3504486,
3.649166584,201.3808746,
3.650833368,201.1290588,
3.652500153,200.1694336,
3.654166698,201.5544128,
3.655833483,202.1652679,
3.657500029,199.919632,
3.659166813,201.2833405,
3.660833597,201.9588928,
3.662499905,200.9454956,
3.664166689,200.3023834,
3.665833235,201.6330109,
3.667500019,201.0758209,
3.669166803,200.5706024,
3.670833349,200.3727417,
3.672500134,200.3024445,
3.674166679,201.7922821,
3.675833464,200.6866455,
3.677500248,200.6961975,
3.679166555,200.8416901,
3.68083334,200.4919128,
3.682499886,200.473938,
3.68416667,201.7113495,
3.685833454,202.5013275,
3.6875,200.5039215,
3.689166784,201.229538,
3.69083333,201.953537,
3.692500114,201.0650024,
3.694166899,200.316391,
3.695833445,200.5673065,
3.69749999,200.2325134,
3.699166536,199.2924042,
3.700833321,200.1711426,
3.702500105,200.2231598,
3.704166651,200.6169586,
3.705833435,200.5464172,
3.707499981,201.579422,
3.709166765,201.9824829,
3.710833549,201.055954,
3.712500095,201.0877991,
3.71416688,201.2377472,
3.715833187,199.5604858,
3.717499971,200.2052155,
3.719166756,201.9191742,
3.720833302,200.6025238,
3.722500086,201.216507,
3.724166632,201.7206268,
3.725833416,201.767395,
3.7275002,200.78302,
3.729166746,200.5922394,
3.73083353,202.1944427,
3.732499838,198.9824066,
3.734166622,201.2398224,
3.735833406,201.7793884,
3.737499952,201.6663055,
3.739166737,201.3041382,
3.740833282,201.9461517,
3.742500067,200.76651,
3.744166851,201.2324524,
3.745833397,201.0183563,
3.747500181,199.8234558,
3.749166727,201.6369476,
3.750833273,200.8351593,
3.752500057,200.1581116,
3.754166603,199.4611664,
3.755833387,201.0233154,
3.757499933,200.6826477,
3.759166718,200.6844177,
3.760833502,201.0648804,
3.762500048,202.0093842,
3.764166832,200.9231415,
3.765833378,201.4445038,
3.767500162,200.1220093,
3.769166708,199.7510223,
3.770833254,200.8657684,
3.772500038,201.451767,
3.774166584,200.8271179,
3.775833368,200.0968933,
3.777500153,200.4567413,
3.779166698,201.5409088,
3.780833483,201.9038391,
3.782500029,199.3072357,
3.784166813,200.5364685,
3.785833597,200.3939056,
3.787499905,200.5545349,
3.789166689,202.6408691,
3.790833235,200.1690979,
3.792500019,200.035614,
3.794166803,200.7355347,
3.795833349,200.7438049,
3.797500134,199.5664368,
3.799166679,201.6166077,
3.800833464,201.2309875,
3.802500248,202.4992676,
3.804166555,200.8402557,
3.80583334,201.9969025,
3.807499886,200.6250458,
3.80916667,201.6640472,
3.810833454,200.3717804,
3.8125,200.062851,
3.814166784,201.0455475,
3.81583333,200.1981964,
3.817500114,201.0986786,
3.819166899,199.7508698,
3.820833445,200.6424561,
3.82249999,200.0766449,
3.824166536,200.6762238,
3.825833321,200.5783844,
3.827500105,200.9002686,
3.829166651,200.6104126,
3.830833435,200.8939056,
3.832499981,201.4491577,
3.834166765,200.4642487,
3.835833549,200.2483368,
3.837500095,200.4651031,
3.83916688,200.7378082,
3.840833187,200.5681915,
3.842499971,201.3726196,
3.844166756,200.4729919,
3.845833302,200.8637848,
3.847500086,199.8591003,
3.849166632,201.5429688,
3.850833416,201.5734863,
3.8525002,200.8391113,
3.854166746,200.7163391,
3.85583353,200.0687561,
3.857499838,200.8512726,
3.859166622,200.8838196,
3.860833406,200.6197662,
3.862499952,201.2958221,
3.864166737,199.2007751,
3.865833282,198.905014,
3.867500067,200.260788,
3.869166851,201.7940063,
3.870833397,199.5834045,
3.872500181,200.0400238,
3.874166727,200.8643188,
3.875833273,200.4915314,
3.877500057,201.1630402,
3.879166603,198.700531,
3.880833387,200.4595947,
3.882499933,200.1726074,
3.884166718,199.5529633,
3.885833502,200.5754395,
3.887500048,199.4319,
3.889166832,200.3894806,
3.890833378,199.8764954,
3.892500162,200.8785095,
3.894166708,200.2853241,
3.895833254,198.9110413,
3.897500038,201.0399475,
3.899166584,200.8665009,
3.900833368,198.2596741,
3.902500153,199.1946411,
3.904166698,200.8003845,
3.905833483,201.1977081,
3.907500029,199.3324432,
3.909166813,199.678833,
3.910833597,199.5727539,
3.912499905,201.0674744,
3.914166689,201.4034119,
3.915833235,199.8659515,
3.917500019,199.4865265,
3.919166803,200.1817474,
3.920833349,199.4091187,
3.922500134,202.0414276,
3.924166679,200.6521149,
3.925833464,199.7008057,
3.927500248,200.4715576,
3.929166555,201.4576569,
3.93083334,199.6168213,
3.932499886,200.5193329,
3.93416667,201.2172546,
3.935833454,200.2352905,
3.9375,199.8316803,
3.939166784,200.4603271,
3.94083333,200.7333221,
3.942500114,200.1585693,
3.944166899,200.4405212,
3.945833445,200.3149414,
3.94749999,200.8472595,
3.949166536,199.56604,
3.950833321,199.8088989,
3.952500105,198.7822113,
3.954166651,201.0327759,
3.955833435,201.6532593,
3.957499981,201.9745789,
3.959166765,202.1113586,
3.960833549,200.3918762,
3.962500095,200.5028229,
3.96416688,201.0797882,
3.965833187,198.5397949,
3.967499971,198.1348419,
3.969166756,199.7166901,
3.970833302,200.1421661,
3.972500086,200.0502777,
3.974166632,201.0726471,
3.975833416,199.738739,
3.9775002,200.0652618,
3.979166746,200.1750641,
3.98083353,200.538269,
3.982499838,200.5802765,
3.984166622,200.5205688,
3.985833406,199.7852478,
3.987499952,199.1667633,
3.989166737,200.1482239,
3.990833282,200.4572906,
3.992500067,199.349823,
3.994166851,200.5604858,
3.995833397,201.0881195,
3.997500181,199.7234497,
3.999166727,199.2819824,
4.000833511,199.5826111,
4.002500057,200.9930725,
4.004166603,199.7353821,
4.005833626,200.2436371,
4.007500172,200.8050079,
4.009166718,200.3022766,
4.010833263,199.1259766,
4.012499809,199.2896576,
4.014166832,200.1816406,
4.015833378,200.0828705,
4.017499924,200.367981,
4.019166946,201.0640411,
4.020833492,201.1250763,
4.022500038,198.0371857,
4.024166584,199.2615356,
4.025833607,200.7123413,
4.027500153,199.4962616,
4.029166698,198.7966156,
4.030833244,200.8818665,
4.03249979,199.9953918,
4.034166813,198.4858551,
4.035833359,199.776886,
4.037499905,200.9287567,
4.039166927,200.7027588,
4.040833473,199.3653412,
4.042500019,200.2795715,
4.044167042,200.3145142,
4.045833111,199.6815948,
4.047500134,199.6674194,
4.049166679,200.2033691,
4.050833225,199.2406158,
4.052500248,199.2849579,
4.054166794,201.19487,
4.05583334,200.5366516,
4.057499886,199.6598969,
4.059166908,201.1890717,
4.060833454,200.3979492,
4.0625,199.2800903,
4.064166546,199.556076,
4.065833092,200.2874451,
4.067500114,200.4464874,
4.06916666,199.2902679,
4.070833206,197.9424744,
4.072500229,200.2150421,
4.074166775,198.3286743,
4.075833321,200.7705841,
4.077500343,199.682663,
4.079166889,199.6123657,
4.080833435,199.4964294,
4.082499981,199.7416992,
4.084166527,200.581543,
4.085833549,200.4364471,
4.087500095,199.2445068,
4.089166641,200.4080505,

