1,,
Time (min),Intensity (a.u.),
0.0008333333535,291.7922058,
0.002500000177,292.9726257,
0.004166666884,291.0773621,
0.005833333358,293.1799316,
0.007500000298,290.8598328,
0.009166667238,292.367218,
0.01083333418,291.1680298,
0.01250000019,292.5571289,
0.01416666713,291.2714233,
0.01583333313,292.2058716,
0.01750000194,293.0879211,
0.01916666701,292.6518555,
0.02083333395,292.8157349,
0.02250000089,292.2688904,
0.02416666783,290.7935486,
0.02583333477,292.6059875,
0.02749999985,290.2071228,
0.02916666679,292.4952393,
0.03083333373,291.7645569,
0.03250000253,295.3209534,
0.03416666761,293.1031494,
0.03583333641,293.4780579,
0.03750000149,292.4007568,
0.03916667029,291.4981995,
0.04083333537,292.6674805,
0.04250000045,291.1721191,
0.04416666925,293.1217041,
0.04583333433,291.0813293,
0.04750000313,290.8458862,
0.04916666821,291.4993286,
0.05083333328,293.4884338,
0.05250000209,292.0079651,
0.05416666716,293.0223389,
0.05583333597,292.878479,
0.05750000104,292.1368408,
0.05916666612,293.0300293,
0.06083333492,293.3317871,
0.0625,293.1283264,
0.06416667253,292.0171814,
0.0658333376,292.8538818,
0.06750000268,292.5425415,
0.06916666776,291.1576233,
0.07083333284,291.4300232,
0.07249999791,293.6231079,
0.07416667044,291.224823,
0.07583333552,292.9397583,
0.0775000006,291.8453674,
0.07916666567,292.3080444,
0.08083333075,293.6979675,
0.08250000328,291.9274902,
0.08416666836,293.2792969,
0.08583333343,291.8753662,
0.08749999851,292.3651428,
0.08916666359,292.81427,
0.09083333611,292.8127441,
0.09250000119,292.548645,
0.09416666627,292.3293457,
0.09583333135,292.963623,
0.09749999642,293.0147095,
0.09916666895,292.0220642,
0.100833334,294.6138306,
0.1024999991,293.9508057,
0.1041666642,292.5488281,
0.1058333293,291.9530029,
0.1075000018,292.9154968,
0.1091666669,291.897583,
0.1108333319,292.4126282,
0.112499997,292.5295105,
0.1141666621,293.4048767,
0.1158333346,292.2674866,
0.1174999997,292.3301392,
0.1191666648,292.648468,
0.1208333299,294.0233459,
0.1224999949,293.2759094,
0.1241666749,292.2049255,
0.1258333325,290.9532471,
0.1274999976,292.3804016,
0.1291666627,292.1939087,
0.1308333278,292.9682617,
0.1325000077,291.9718323,
0.1341666728,291.3187256,
0.1358333379,293.4335022,
0.137500003,292.6795044,
0.1391666681,290.1237488,
0.1408333331,292.0812683,
0.1424999982,293.6761169,
0.1441666782,291.8545837,
0.1458333284,292.9796143,
0.1475000083,292.782959,
0.1491666585,290.3373413,
0.1508333385,293.6548157,
0.1525000036,292.0250854,
0.1541666687,293.1247864,
0.1558333337,291.3405762,
0.1574999988,292.3564453,
0.1591666639,292.9797974,
0.1608333439,291.7702332,
0.162499994,293.4605408,
0.164166674,291.4265137,
0.1658333242,292.6592407,
0.1675000042,292.8244019,
0.1691666692,294.3730774,
0.1708333343,292.0256042,
0.1724999994,292.1893005,
0.1741666645,292.3282776,
0.1758333296,292.1835327,
0.1775000095,293.5449219,
0.1791666597,293.5015564,
0.1808333397,291.7396545,
0.1824999899,291.8979187,
0.1841666698,293.6143494,
0.1858333498,292.9304504,
0.1875,292.3395081,
0.18916668,290.7132568,
0.1908333302,292.9423218,
0.1925000101,291.4860229,
0.1941666752,292.1508484,
0.1958333403,291.3023682,
0.1975000054,293.1011658,
0.1991666704,291.1837158,
0.2008333355,292.505249,
0.2025000155,292.1803894,
0.2041666657,294.347168,
0.2058333457,291.0194397,
0.2074999958,291.870697,
0.2091666758,292.7315979,
0.2108333409,292.9529724,
0.212500006,293.1928711,
0.214166671,293.0990906,
0.2158333361,292.4100952,
0.2175000012,291.9621277,
0.2191666812,292.7459412,
0.2208333313,293.9717407,
0.2225000113,291.1806335,
0.2241666615,291.9812622,
0.2258333415,293.6136169,
0.2275000066,293.1479492,
0.2291666716,292.8544617,
0.2308333367,294.8880005,
0.2325000018,292.1308289,
0.2341666669,292.0220032,
0.2358333468,294.2532043,
0.237499997,290.5438843,
0.239166677,291.2697449,
0.2408333272,292.4701843,
0.2425000072,292.8373718,
0.2441666722,295.2038574,
0.2458333373,292.1063843,
0.2475000024,293.3564453,
0.2491666675,293.3677673,
0.2508333325,292.2310181,
0.2524999976,291.2798462,
0.2541666627,293.5864868,
0.2558333278,292.7322083,
0.2574999928,293.3499451,
0.2591666579,292.593811,
0.2608333528,291.8796692,
0.2624999881,292.2922058,
0.264166683,292.4047241,
0.2658333182,292.1264648,
0.2675000131,293.1640015,
0.2691666484,294.0391541,
0.2708333433,291.4369202,
0.2725000083,291.5541077,
0.2741666734,293.2555542,
0.2758333385,292.3692017,
0.2775000036,293.7461853,
0.2791666687,291.8548584,
0.2808333337,292.8866882,
0.2824999988,291.2910156,
0.2841666937,290.1590881,
0.285833329,292.9604492,
0.287499994,292.6168823,
0.2891666591,292.4716797,
0.290833354,293.9302673,
0.2925000191,292.2941284,
0.2941666543,292.1600952,
0.2958333194,294.08255,
0.2975000143,290.8035278,
0.2991666794,290.9873352,
0.3008333445,292.9344177,
0.3024999797,291.8706665,
0.3041666746,294.5335999,
0.3058333397,290.7301025,
0.3075000048,293.7191467,
0.3091666996,292.6387024,
0.3108333349,292.1393433,
0.3125,292.3669128,
0.3141666651,292.7536316,
0.31583336,292.1160583,
0.317500025,292.3207092,
0.3191666603,292.9401245,
0.3208333254,291.3947754,
0.3225000203,292.9437561,
0.3241666853,292.1853333,
0.3258333504,291.5598755,
0.3274999857,293.2785034,
0.3291666806,292.2423706,
0.3308333457,293.1078186,
0.3325000107,292.2784119,
0.3341666758,293.0209045,
0.3358333409,292.6420593,
0.337500006,291.9462891,
0.339166671,293.1564331,
0.3408333361,291.135498,
0.342500031,294.5396118,
0.3441666663,292.0273132,
0.3458333313,292.3604431,
0.3474999964,290.9513245,
0.3491666913,293.0853271,
0.3508333564,291.881958,
0.3524999917,290.7360535,
0.3541666567,291.5755615,
0.3558333516,292.9445801,
0.3575000167,293.443634,
0.3591666818,292.5565186,
0.360833317,290.8130188,
0.3625000119,294.9405823,
0.364166677,291.2527771,
0.3658333421,291.8765869,
0.3675000072,290.9465332,
0.3691666722,292.3068848,
0.3708333373,293.8084717,
0.3725000024,293.2113342,
0.3741666675,291.5158691,
0.3758333623,292.9364624,
0.3774999976,291.8746338,
0.3791666627,292.7888184,
0.3808333278,292.4398499,
0.3825000226,291.6214294,
0.3841666877,291.5607605,
0.385833323,292.9353333,
0.3874999881,289.7132263,
0.389166683,289.9579163,
0.390833348,291.0478821,
0.3925000131,292.1444092,
0.3941666484,291.0714722,
0.3958333433,292.7323914,
0.3975000083,292.3143005,
0.3991666734,291.9447937,
0.4008333385,291.7443542,
0.4025000036,291.3756714,
0.4041666687,292.5935364,
0.4058333337,292.0101929,
0.4074999988,291.7920532,
0.4091666937,291.9091797,
0.410833329,294.2115173,
0.412499994,291.2533875,
0.4141666591,292.0804443,
0.415833354,295.2941284,
0.4175000191,293.2290649,
0.4191666543,292.5595398,
0.4208333194,291.4848938,
0.4225000143,291.2875366,
0.4241666794,293.5314941,
0.4258333445,293.0844727,
0.4274999797,290.2911072,
0.4291666746,291.1006775,
0.4308333397,293.3139648,
0.4325000048,291.438385,
0.4341666996,292.6507874,
0.4358333349,294.771759,
0.4375,292.6085205,
0.4391666651,291.5464783,
0.44083336,293.0768433,
0.442500025,291.9022217,
0.4441666603,292.4006958,
0.4458333254,292.9699097,
0.4475000203,291.9309998,
0.4491666853,293.596283,
0.4508333504,290.7049866,
0.4524999857,290.9060364,
0.4541666806,289.8591003,
0.4558333457,291.4265442,
0.4575000107,292.109314,
0.4591666758,292.0254211,
0.4608333409,292.4453735,
0.462500006,293.3712158,
0.464166671,291.5999146,
0.4658333361,293.7158813,
0.467500031,290.3378296,
0.4691666663,292.5145874,
0.4708333313,292.254425,
0.4724999964,293.6738892,
0.4741666913,291.9164734,
0.4758333564,291.7826843,
0.4774999917,290.855835,
0.4791666567,292.0937195,
0.4808333516,291.9920044,
0.4825000167,292.131897,
0.4841666818,292.0516052,
0.485833317,292.6971741,
0.4875000119,292.6184082,
0.489166677,293.480011,
0.4908333421,290.7718811,
0.4925000072,292.9978027,
0.4941666722,291.2940674,
0.4958333373,290.9363708,
0.4975000024,291.9252319,
0.4991666675,291.9592896,
0.5008333325,292.3535767,
0.5024999976,292.4614563,
0.5041666627,291.5177612,
0.5058333278,293.3166809,
0.5074999928,291.1655579,
0.5091666579,292.5653076,
0.510833323,290.9232178,
0.5124999881,291.9541626,
0.5141666532,292.7286987,
0.5158333182,292.210907,
0.5175000429,292.9957275,
0.5191666484,292.0798035,
0.5208333135,292.6008606,
0.5224999785,292.7408752,
0.5241667032,292.6221619,
0.5258333683,292.7407227,
0.5274999738,291.7127075,
0.5291666389,293.4121704,
0.5308333635,292.9405518,
0.5325000286,291.5460815,
0.5341666341,292.2470093,
0.5358333588,291.1416321,
0.5375000238,291.619812,
0.5391666889,291.1824951,
0.540833354,291.8736877,
0.5424999595,291.9103394,
0.5441666842,291.427002,
0.5458333492,293.0469971,
0.5475000143,291.2529602,
0.5491666794,292.6448975,
0.5508333445,290.6778564,
0.5525000095,293.4223022,
0.5541666746,293.4568176,
0.5558333993,290.9382629,
0.5575000048,290.6974792,
0.5591666698,292.4502563,
0.5608333349,291.7295532,
0.5625,292.7298279,
0.5641667247,294.1037292,
0.5658333302,294.4524536,
0.5674999952,291.2224426,
0.5691667199,292.2032471,
0.5708333254,293.2660522,
0.5725000501,291.9527283,
0.5741666555,292.0876465,
0.5758333206,293.1307678,
0.5775000453,292.446167,
0.5791666508,292.7971497,
0.5808333755,291.9174805,
0.5825000405,292.5707703,
0.584166646,292.3106995,
0.5858333707,294.0069275,
0.5874999762,293.097229,
0.5891667008,295.5700684,
0.5908333659,293.3676758,
0.5924999714,294.3696594,
0.5941666961,292.8701782,
0.5958333611,293.1468201,
0.5975000262,291.4848022,
0.5991666913,292.7055054,
0.6008332968,295.4240723,
0.6025000215,292.0360718,
0.6041666865,289.729248,
0.6058333516,292.0925903,
0.6075000167,292.1998596,
0.6091666818,292.2484131,
0.6108333468,291.8758545,
0.6125000119,292.5123596,
0.614166677,291.7819519,
0.6158333421,292.8963013,
0.6175000072,293.2527161,
0.6191666722,294.241272,
0.6208333373,292.9287109,
0.622500062,291.2066956,
0.6241666675,292.8300781,
0.6258333325,292.180603,
0.6274999976,292.6081848,
0.6291666627,293.4156799,
0.6308333874,292.7261353,
0.6324999928,292.2182312,
0.6341666579,293.7914429,
0.6358333826,291.8475342,
0.6374999881,291.2628784,
0.6391667128,292.2345276,
0.6408333182,293.3643494,
0.6424999833,293.2660522,
0.644166708,293.6985168,
0.6458333135,293.8240356,
0.6475000381,292.4072571,
0.6491667032,292.5670471,
0.6508333087,292.1080627,
0.6525000334,294.0310059,
0.6541666389,293.2441711,
0.6558333635,292.6231689,
0.6575000286,294.4087524,
0.6591666341,294.0698853,
0.6608333588,292.818573,
0.6625000238,292.8667908,
0.6641666889,292.3824768,
0.665833354,292.2402954,
0.6674999595,291.8973694,
0.6691666842,292.3215027,
0.6708333492,292.7384949,
0.6725000143,292.0744324,
0.6741666794,291.278595,
0.6758333445,292.0396118,
0.6775000095,292.5272522,
0.6791666746,293.1531677,
0.6808333993,293.0180359,
0.6825000048,291.7867737,
0.6841666698,292.2291565,
0.6858333349,291.2098999,
0.6875,292.8584595,
0.6891667247,291.5909729,
0.6908333302,292.3527832,
0.6924999952,292.5835876,
0.6941667199,292.2247009,
0.6958333254,291.8973999,
0.6975000501,292.5859985,
0.6991666555,291.6253052,
0.7008333206,294.2145691,
0.7025000453,294.3880615,
0.7041666508,292.7897949,
0.7058333755,291.7410583,
0.7075000405,292.240387,
0.709166646,292.5854797,
0.7108333707,292.8448486,
0.7124999762,293.4402771,
0.7141667008,291.2457275,
0.7158333659,292.1735229,
0.7174999714,293.7367554,
0.7191666961,293.7012634,
0.7208333611,291.2402344,
0.7225000262,293.160675,
0.7241666913,292.3821411,
0.7258332968,291.9762268,
0.7275000215,292.5640564,
0.7291666865,290.6766968,
0.7308333516,293.1036682,
0.7325000167,292.9244995,
0.7341666818,290.9453125,
0.7358333468,291.14505,
0.7375000119,293.2527771,
0.739166677,290.3391724,
0.7408333421,293.5163269,
0.7425000072,293.481842,
0.7441666722,292.1013184,
0.7458333373,291.9467468,
0.747500062,291.617981,
0.7491666675,291.009552,
0.7508333325,291.6902771,
0.7524999976,291.566803,
0.7541666627,291.8995056,
0.7558333874,293.9487305,
0.7574999928,292.4684448,
0.7591666579,294.1014404,
0.7608333826,292.9542236,
0.7624999881,294.1200867,
0.7641667128,290.7953796,
0.7658333182,291.7936707,
0.7674999833,291.4532776,
0.769166708,292.9842224,
0.7708333135,292.7442017,
0.7725000381,292.7457886,
0.7741667032,293.788269,
0.7758333087,291.6133423,
0.7775000334,293.1800842,
0.7791666389,293.7990417,
0.7808333635,291.1844788,
0.7825000286,294.1578064,
0.7841666341,290.2290955,
0.7858333588,291.5393982,
0.7875000238,292.5040283,
0.7891666889,292.8700867,
0.790833354,291.8646851,
0.7924999595,293.6772766,
0.7941666842,293.5887451,
0.7958333492,292.712616,
0.7975000143,295.0734558,
0.7991666794,292.3399658,
0.8008333445,293.3656006,
0.8025000095,292.0377197,
0.8041666746,291.3735657,
0.8058333993,291.0045166,
0.8075000048,292.0933533,
0.8091666698,292.9466553,
0.8108333349,292.9455261,
0.8125,293.7389832,
0.8141667247,290.2852478,
0.8158333302,291.7088318,
0.8174999952,293.369873,
0.8191667199,291.8310242,
0.8208333254,292.5570374,
0.8225000501,293.2051392,
0.8241666555,292.381897,
0.8258333206,292.9134521,
0.8275000453,293.9321899,
0.8291666508,292.6981506,
0.8308333755,291.6386719,
0.8325000405,293.0986023,
0.834166646,292.5169067,
0.8358333707,294.3968506,
0.8374999762,293.0511475,
0.8391667008,293.1268616,
0.8408333659,292.3765259,
0.8424999714,291.7593689,
0.8441666961,290.9857788,
0.8458333611,292.4671021,
0.8475000262,292.8612366,
0.8491666913,291.2274475,
0.8508332968,291.4689331,
0.8525000215,292.5057068,
0.8541666865,292.5701294,
0.8558333516,291.6929016,
0.8575000167,292.8896484,
0.8591666818,292.1082153,
0.8608333468,290.9797058,
0.8625000119,292.4356995,
0.864166677,291.9511108,
0.8658333421,290.7896423,
0.8675000072,293.131958,
0.8691666722,292.2756042,
0.8708333373,292.8023071,
0.872500062,291.3460388,
0.8741666675,292.7577209,
0.8758333325,292.4907227,
0.8774999976,292.2167969,
0.8791666627,291.9647827,
0.8808333874,291.4508972,
0.8824999928,292.879364,
0.8841666579,293.0069885,
0.8858333826,291.8891907,
0.8874999881,290.5914612,
0.8891667128,291.4885254,
0.8908333182,292.9961548,
0.8924999833,293.4150391,
0.894166708,292.0401611,
0.8958333135,292.8595581,
0.8975000381,295.2766418,
0.8991667032,293.2355957,
0.9008333087,291.3519897,
0.9025000334,290.7298279,
0.9041666389,293.5758667,
0.9058333635,292.9698486,
0.9075000286,292.5708618,
0.9091666341,292.5279541,
0.9108333588,292.2600708,
0.9125000238,291.5871277,
0.9141666889,294.7355652,
0.915833354,291.6055298,
0.9174999595,292.3853149,
0.9191666842,291.3414917,
0.9208333492,293.1530457,
0.9225000143,291.0807495,
0.9241666794,292.1522522,
0.9258333445,293.009613,
0.9275000095,290.3935547,
0.9291666746,291.598999,
0.9308333993,291.808136,
0.9325000048,293.6000977,
0.9341666698,291.3519592,
0.9358333349,294.3348694,
0.9375,292.3442688,
0.9391667247,292.3627625,
0.9408333302,292.1164856,
0.9424999952,293.0791626,
0.9441667199,293.99823,
0.9458333254,294.4352112,
0.9475000501,291.2142334,
0.9491666555,293.5159607,
0.9508333206,293.230011,
0.9525000453,293.1256714,
0.9541666508,293.4639282,
0.9558333755,292.8554382,
0.9575000405,292.8693237,
0.959166646,295.136261,
0.9608333707,291.2353821,
0.9624999762,293.6918335,
0.9641667008,291.1937561,
0.9658333659,291.2666321,
0.9674999714,293.3977966,
0.9691666961,293.1525879,
0.9708333611,291.7566528,
0.9725000262,291.7257385,
0.9741666913,293.5689697,
0.9758332968,293.6166382,
0.9775000215,293.1188049,
0.9791666865,290.9640808,
0.9808333516,292.2937622,
0.9825000167,291.1089172,
0.9841666818,290.0173035,
0.9858333468,291.5307312,
0.9875000119,293.5644836,
0.989166677,293.7230835,
0.9908333421,292.3665161,
0.9925000072,294.262085,
0.9941666722,292.8017578,
0.9958333373,292.180603,
0.997500062,293.1019287,
0.9991666675,292.4023743,
1.000833273,290.6554871,
1.002500057,292.7862244,
1.004166722,293.3485107,
1.005833387,291.102478,
1.007500052,292.2051392,
1.009166598,291.5041504,
1.010833383,293.5547485,
1.012500048,292.8493958,
1.014166713,291.8452148,
1.015833378,291.4553528,
1.017500043,291.4572144,
1.019166708,292.5026245,
1.020833373,289.9090881,
1.022500038,291.7442627,
1.024166703,292.5686951,
1.025833368,293.3887634,
1.027500033,291.0444031,
1.029166698,292.9831543,
1.030833364,291.5632324,
1.032500029,291.9118042,
1.034166694,292.9503174,
1.035833359,291.9783936,
1.037500024,292.1135254,
1.039166689,292.5449829,
1.040833354,291.3592529,
1.042500019,293.7102661,
1.044166684,292.8782349,
1.045833349,292.4610291,
1.047500014,292.4658508,
1.049166679,291.4992065,
1.050833344,292.2541504,
1.05250001,291.2338562,
1.054166675,295.2653503,
1.05583334,293.4627991,
1.057500005,294.4213867,
1.05916667,291.1797485,
1.060833335,292.8198853,
1.0625,291.1489868,
1.064166665,292.1804199,
1.06583333,293.2401733,
1.067499995,292.2814331,
1.06916666,294.0459595,
1.070833325,292.6378784,
1.07249999,292.0958252,
1.074166775,294.3682251,
1.07583344,293.4902039,
1.077499986,292.5721436,
1.079166651,292.9634399,
1.080833316,291.1582642,
1.0825001,294.8155212,
1.084166765,290.8729248,
1.085833311,292.6083679,
1.087499976,293.0681152,
1.089166641,292.065979,
1.090833426,291.0025024,
1.092500091,293.0978699,
1.094166636,291.9065857,
1.095833302,291.8339233,
1.097499967,292.7004089,
1.099166751,292.5090942,
1.100833416,290.7575989,
1.102500081,292.3556824,
1.104166627,293.4700317,
1.105833292,292.0727539,
1.107500076,294.3895264,
1.109166741,291.3112793,
1.110833406,292.2727356,
1.112499952,293.5253601,
1.114166617,292.8753052,
1.115833402,291.4640808,
1.117500067,292.7779236,
1.119166732,292.65979,
1.120833278,291.7449951,
1.122499943,292.8815002,
1.124166727,291.827301,
1.125833392,290.9703979,
1.127500057,292.7210083,
1.129166722,291.9472351,
1.130833268,290.3070068,
1.132500052,293.064209,
1.134166718,291.4338989,
1.135833383,289.9377136,
1.137500048,290.5427246,
1.139166594,293.4230957,
1.140833378,290.9392395,
1.142500043,293.9712219,
1.144166708,293.070282,
1.145833373,291.9697876,
1.147499919,292.3467407,
1.149166703,292.2320557,
1.150833368,293.4914246,
1.152500033,294.4542236,
1.154166698,292.7229614,
1.155833364,292.4744873,
1.157500029,291.7588501,
1.159166694,290.615448,
1.160833359,292.9958801,
1.162500024,292.3353577,
1.164166689,292.952301,
1.165833354,293.6661072,
1.167500019,293.1046448,
1.169166684,292.4941711,
1.170833349,293.90979,
1.172500014,290.5055847,
1.174166799,291.1888123,
1.175833344,291.7184753,
1.17750001,292.9376831,
1.179166675,292.2496948,
1.18083334,292.5969238,
1.182500124,291.9722595,
1.18416667,291.8688354,
1.185833335,292.440094,
1.1875,291.7059326,
1.189166665,292.5049438,
1.190833449,292.6945801,
1.192499995,290.349884,
1.19416666,291.7713928,
1.195833325,292.3469849,
1.19749999,291.5586243,
1.199166775,291.5393372,
1.20083344,292.267334,
1.202499986,291.7414551,
1.204166651,294.2714844,
1.205833316,292.5472412,
1.2075001,291.531189,
1.209166765,292.3943176,
1.210833311,292.7825317,
1.212499976,291.4086304,
1.214166641,293.8207397,
1.215833426,291.6030273,
1.217500091,292.330658,
1.219166636,292.900177,
1.220833302,292.1954041,
1.222499967,290.5966492,
1.224166751,290.9677734,
1.225833416,293.7713318,
1.227500081,292.4837341,
1.229166627,292.0596313,
1.230833292,292.1494446,
1.232500076,291.6176453,
1.234166741,293.5787354,
1.235833406,291.7202759,
1.237499952,291.4573059,
1.239166617,291.9483643,
1.240833402,291.2776489,
1.242500067,291.8587952,
1.244166732,293.3928833,
1.245833278,292.1056824,
1.247499943,292.0793152,
1.249166727,291.0645142,
1.250833392,293.5791931,
1.252500057,290.1634216,
1.254166722,293.8184204,
1.255833268,294.4752808,
1.257500052,293.7174377,
1.259166718,293.0493164,
1.260833383,293.1311035,
1.262500048,292.4406738,
1.264166594,291.9322815,
1.265833378,294.4961243,
1.267500043,292.8404236,
1.269166708,292.2492065,
1.270833373,289.7671509,
1.272499919,292.388855,
1.274166703,292.6673889,
1.275833368,292.4797058,
1.277500033,292.2877808,
1.279166698,291.7701721,
1.280833364,293.6004944,
1.282500029,294.6288757,
1.284166694,291.747406,
1.285833359,293.7136536,
1.287500024,292.8009033,
1.289166689,293.3498535,
1.290833354,291.910675,
1.292500019,291.6837463,
1.294166684,292.7663879,
1.295833349,291.6131592,
1.297500014,293.9616089,
1.299166799,292.697113,
1.300833344,292.0939026,
1.30250001,291.6072083,
1.304166675,291.7321167,
1.30583334,292.4882507,
1.307500124,290.5275574,
1.30916667,292.9706421,
1.310833335,292.1852112,
1.3125,293.6804504,
1.314166665,291.9884644,
1.315833449,291.9781189,
1.317499995,292.8718567,
1.31916666,291.2858887,
1.320833325,293.1626587,
1.32249999,292.8595276,
1.324166775,291.5218201,
1.32583344,293.1376343,
1.327499986,293.4415894,
1.329166651,293.1217957,
1.330833316,293.1140442,
1.3325001,291.6227112,
1.334166765,291.9102783,
1.335833311,291.1463928,
1.337499976,292.3769836,
1.339166641,292.2875977,
1.340833426,292.2020874,
1.342500091,292.6907654,
1.344166636,291.7443848,
1.345833302,292.8353882,
1.347499967,292.6781921,
1.349166751,292.0131836,
1.350833416,292.4940796,
1.352500081,291.1057434,
1.354166627,291.3583374,
1.355833292,294.2836914,
1.357500076,291.3629456,
1.359166741,293.7906494,
1.360833406,291.3336487,
1.362499952,291.9631348,
1.364166617,293.5565491,
1.365833402,291.8718872,
1.367500067,291.7070007,
1.369166732,290.8655396,
1.370833278,294.0298767,
1.372499943,292.552124,
1.374166727,292.9650269,
1.375833392,292.7924805,
1.377500057,291.6652222,
1.379166722,291.3619385,
1.380833268,292.0239258,
1.382500052,293.2577209,
1.384166718,292.4551086,
1.385833383,292.4206238,
1.387500048,292.9205017,
1.389166594,292.4556885,
1.390833378,293.3241272,
1.392500043,292.3647461,
1.394166708,292.4414673,
1.395833373,292.3262024,
1.397499919,292.0395813,
1.399166703,293.2704468,
1.400833368,294.1557922,
1.402500033,293.0940247,
1.404166698,290.787384,
1.405833364,290.5681152,
1.407500029,289.7926331,
1.409166694,290.3044739,
1.410833359,291.958374,
1.412500024,291.8763428,
1.414166689,293.6758118,
1.415833354,291.6329956,
1.417500019,291.1739197,
1.419166684,292.7609253,
1.420833349,291.7315369,
1.422500014,291.6367798,
1.424166799,291.3780212,
1.425833344,291.0093994,
1.42750001,291.0246277,
1.429166675,291.1414185,
1.43083334,292.2918091,
1.432500124,291.3147583,
1.43416667,291.8453064,
1.435833335,292.6315002,
1.4375,292.1498413,
1.439166665,291.1035156,
1.440833449,292.0765076,
1.442499995,290.9444885,
1.44416666,289.7158508,
1.445833325,292.883606,
1.44749999,290.5262146,
1.449166775,291.6227112,
1.45083344,291.9555969,
1.452499986,291.0483704,
1.454166651,292.3952026,
1.455833316,293.2298584,
1.4575001,293.6504822,
1.459166765,292.3781128,
1.460833311,290.5865479,
1.462499976,290.7059021,
1.464166641,292.4936218,
1.465833426,290.0702209,
1.467500091,291.1639099,
1.469166636,291.3700562,
1.470833302,291.9284058,
1.472499967,292.2489014,
1.474166751,293.0993042,
1.475833416,291.9130859,
1.477500081,290.9923401,
1.479166627,291.5421143,
1.480833292,291.0740967,
1.482500076,291.4290161,
1.484166741,291.8867798,
1.485833406,292.0894165,
1.487499952,292.1263733,
1.489166617,292.8364563,
1.490833402,291.5453186,
1.492500067,291.7222595,
1.494166732,291.6893005,
1.495833278,292.6459351,
1.497499943,290.7445679,
1.499166727,290.7147522,
1.500833392,292.329895,
1.502500057,291.1736755,
1.504166722,292.9325562,
1.505833268,293.8001404,
1.507500052,291.9886169,
1.509166718,291.2979736,
1.510833383,290.9526978,
1.512500048,291.2633057,
1.514166594,292.8130798,
1.515833378,293.1387329,
1.517500043,291.6940613,
1.519166708,291.6055298,
1.520833373,292.4298096,
1.522499919,292.8106384,
1.524166703,292.2705383,
1.525833368,294.0966797,
1.527500033,260.9350891,
1.529166698,252.1421661,
1.530833364,247.7765503,
1.532500029,234.4752655,
1.534166694,223.5387421,
1.535833359,211.1875763,
1.537500024,212.4858246,
1.539166689,240.4224396,
1.540833354,262.2412415,
1.542500019,264.7492676,
1.544166684,265.5131531,
1.545833349,264.0341187,
1.547500014,265.4776611,
1.549166799,266.4476318,
1.550833344,266.2538757,
1.55250001,264.9326477,
1.554166675,266.4291992,
1.55583334,268.9799805,
1.557500124,229.3640747,
1.55916667,211.4202423,
1.560833335,265.175415,
1.5625,227.2856445,
1.564166665,267.1817017,
1.565833449,237.7574005,
1.567499995,237.6582031,
1.56916666,258.2561951,
1.570833325,235.9324646,
1.57249999,234.3963776,
1.574166775,258.0166016,
1.57583344,253.487793,
1.577499986,236.9920959,
1.579166651,241.1869659,
1.580833316,264.2322388,
1.5825001,237.9111328,
1.584166765,256.0725098,
1.585833311,262.7952271,
1.587499976,223.7365417,
1.589166641,279.6741333,
1.590833426,279.4381104,
1.592500091,280.0691528,
1.594166636,278.3404236,
1.595833302,279.503418,
1.597499967,279.117218,
1.599166751,276.4680176,
1.600833416,277.9412537,
1.602500081,276.8447571,
1.604166627,275.4999695,
1.605833292,276.3997192,
1.607500076,275.8115845,
1.609166741,275.4749146,
1.610833406,275.8318481,
1.612499952,275.1903992,
1.614166617,274.8885803,
1.615833402,275.93396,
1.617500067,274.0746765,
1.619166732,274.9347839,
1.620833278,273.2650757,
1.622499943,275.981842,
1.624166727,275.3438721,
1.625833392,273.574707,
1.627500057,271.742157,
1.629166722,272.9894104,
1.630833268,271.9223633,
1.632500052,271.2645569,
1.634166718,270.6344604,
1.635833383,271.377594,
1.637500048,272.3205261,
1.639166594,271.6659546,
1.640833378,270.7203064,
1.642500043,270.1216431,
1.644166708,270.1739807,
1.645833373,269.1410522,
1.647499919,271.5317383,
1.649166703,270.0624695,
1.650833368,269.6068115,
1.652500033,269.6385193,
1.654166698,268.7331848,
1.655833364,270.3635254,
1.657500029,267.6350098,
1.659166694,268.6553345,
1.660833359,267.4997864,
1.662500024,270.7531738,
1.664166689,267.5013733,
1.665833354,268.6036987,
1.667500019,267.9109802,
1.669166684,267.3511353,
1.670833349,265.2904968,
1.672500014,266.4117737,
1.674166799,267.069397,
1.675833344,265.8920593,
1.67750001,264.9054565,
1.679166675,265.959259,
1.68083334,268.5317383,
1.682500124,265.3895874,
1.68416667,266.6878357,
1.685833335,266.4298096,
1.6875,267.2073975,
1.689166665,264.8641968,
1.690833449,264.0227051,
1.692499995,264.550354,
1.69416666,263.8038025,
1.695833325,267.0644836,
1.69749999,263.6212463,
1.699166775,265.1268616,
1.70083344,263.7681274,
1.702499986,264.3898926,
1.704166651,264.4532471,
1.705833316,264.6105957,
1.7075001,264.2180176,
1.709166765,262.4573975,
1.710833311,263.7407837,
1.712499976,261.4958191,
1.714166641,262.6593018,
1.715833426,262.6708679,
1.717500091,263.0449829,
1.719166636,261.3908386,
1.720833302,260.7414246,
1.722499967,259.8411865,
1.724166751,260.8336487,
1.725833416,262.9878845,
1.727500081,261.2915039,
1.729166627,260.1308594,
1.730833292,260.388916,
1.732500076,260.3999329,
1.734166741,260.6408386,
1.735833406,261.4758911,
1.737499952,260.4902649,
1.739166617,260.6507263,
1.740833402,262.3520508,
1.742500067,260.6369934,
1.744166732,259.9849548,
1.745833278,259.4319458,
1.747499943,258.2820435,
1.749166727,260.2608032,
1.750833392,258.6424561,
1.752500057,260.7453308,
1.754166722,260.881897,
1.755833268,259.214386,
1.757500052,258.9777222,
1.759166718,257.1766663,
1.760833383,257.8944092,
1.762500048,257.9891968,
1.764166594,258.5032043,
1.765833378,259.3496094,
1.767500043,258.2548218,
1.769166708,256.3635559,
1.770833373,257.9042969,
1.772499919,257.5233154,
1.774166703,257.1674805,
1.775833368,258.4058838,
1.777500033,260.170929,
1.779166698,258.0335388,
1.780833364,257.6743774,
1.782500029,256.9888916,
1.784166694,257.7305603,
1.785833359,256.7922363,
1.787500024,257.589386,
1.789166689,256.5502319,
1.790833354,255.6795807,
1.792500019,255.364212,
1.794166684,256.5502625,
1.795833349,257.4794312,
1.797500014,255.9956055,
1.799166799,257.2542419,
1.800833344,256.1981201,
1.80250001,255.3035889,
1.804166675,255.7130432,
1.80583334,254.0473633,
1.807500124,253.8594055,
1.80916667,254.6871948,
1.810833335,255.2423248,
1.8125,255.7675476,
1.814166665,254.8376617,
1.815833449,254.9086151,
1.817499995,254.2892761,
1.81916666,255.4613037,
1.820833325,254.5726929,
1.82249999,253.9134674,
1.824166775,253.4115601,
1.82583344,255.1572876,
1.827499986,253.760788,
1.829166651,255.3149414,
1.830833316,254.4463348,
1.8325001,254.0363007,
1.834166765,254.2255249,
1.835833311,253.5561676,
1.837499976,253.7715149,
1.839166641,252.7766571,
1.840833426,253.0647888,
1.842500091,254.9851532,
1.844166636,252.9966888,
1.845833302,252.4380951,
1.847499967,253.2612457,
1.849166751,252.4892731,
1.850833416,253.0536652,
1.852500081,253.6275024,
1.854166627,252.7238464,
1.855833292,253.3740387,
1.857500076,253.0128937,
1.859166741,251.4270477,
1.860833406,252.0333252,
1.862499952,254.0153503,
1.864166617,252.1003418,
1.865833402,252.0858917,
1.867500067,251.4084015,
1.869166732,252.4463501,
1.870833278,252.495163,
1.872499943,252.6822052,
1.874166727,251.5018616,
1.875833392,251.4862671,
1.877500057,249.8899841,
1.879166722,251.9713593,
1.880833268,251.8693237,
1.882500052,253.2854614,
1.884166718,251.9514618,
1.885833383,250.9885712,
1.887500048,252.3702393,
1.889166594,250.864212,
1.890833378,250.2891693,
1.892500043,250.0955505,
1.894166708,251.7206116,
1.895833373,250.0102234,
1.897499919,252.1200409,
1.899166703,250.0261078,
1.900833368,251.7142334,
1.902500033,250.3714905,
1.904166698,248.8737183,
1.905833364,250.588623,
1.907500029,249.9753876,
1.909166694,249.8243256,
1.910833359,252.2771912,
1.912500024,249.2782593,
1.914166689,250.743866,
1.915833354,251.356308,
1.917500019,249.9386597,
1.919166684,250.9141541,
1.920833349,250.0646057,
1.922500014,249.6576691,
1.924166799,250.1557465,
1.925833344,249.8344727,
1.92750001,249.0955963,
1.929166675,250.703064,
1.93083334,249.7688293,
1.932500124,250.6621246,
1.93416667,249.4045105,
1.935833335,250.164566,
1.9375,249.0059967,
1.939166665,250.4975433,
1.940833449,249.5670166,
1.942499995,249.0144348,
1.94416666,248.5473785,
1.945833325,249.638443,
1.94749999,248.9610748,
1.949166775,251.0758972,
1.95083344,248.9090576,
1.952499986,248.6578217,
1.954166651,248.219696,
1.955833316,247.2692108,
1.9575001,248.0128632,
1.959166765,248.2223206,
1.960833311,247.3766937,
1.962499976,248.9605713,
1.964166641,248.8208618,
1.965833426,249.124939,
1.967500091,247.5480194,
1.969166636,246.8651276,
1.970833302,248.078125,
1.972499967,249.4200897,
1.974166751,246.9361267,
1.975833416,248.4364319,
1.977500081,246.940979,
1.979166627,245.5760956,
1.980833292,247.8638916,
1.982500076,247.4079742,
1.984166741,246.7657623,
1.985833406,247.5605774,
1.987499952,247.2570496,
1.989166617,247.7910919,
1.990833402,247.3632355,
1.992500067,247.2228851,
1.994166732,246.8928833,
1.995833278,247.7238617,
1.997499943,247.2642822,
1.999166727,246.4648895,
2.000833273,247.9760437,
2.002500057,247.7289429,
2.004166603,246.3249664,
2.005833387,248.1383514,
2.007500172,244.6516418,
2.009166718,246.6147461,
2.010833263,246.7416534,
2.012500048,245.2007904,
2.014166594,246.852478,
2.015833378,245.4452667,
2.017500162,246.9253082,
2.019166708,245.7717896,
2.020833254,245.2653351,
2.022500038,245.8492279,
2.024166822,247.4816742,
2.025833368,244.8414612,
2.027499914,245.8616791,
2.029166698,247.0005341,
2.030833244,245.8953857,
2.032500029,246.2870178,
2.034166813,247.134903,
2.035833359,247.4736176,
2.037499905,245.2572632,
2.039166689,245.6438141,
2.040833473,247.074295,
2.042500019,245.4911194,
2.044166803,246.484436,
2.045833349,246.6625824,
2.047499895,245.3514557,
2.049166679,244.9110107,
2.050833464,245.2369995,
2.05250001,247.4402161,
2.054166555,245.7519531,
2.05583334,245.6695862,
2.057500124,245.6472778,
2.05916667,245.3860321,
2.060833454,244.7483063,
2.0625,245.401001,
2.064166546,244.0944519,
2.06583333,244.6750641,
2.067500114,243.6046906,
2.06916666,245.2856903,
2.070833445,245.8132019,
2.07249999,244.0573273,
2.074166775,245.5388641,
2.075833321,244.9465637,
2.077500105,246.0131683,
2.079166651,245.220108,
2.080833197,244.8129578,
2.082499981,244.5789337,
2.084166765,245.6523132,
2.085833311,244.2745819,
2.087500095,244.6012726,
2.089166641,244.8936768,
2.090833426,243.3578644,
2.092499971,244.7608032,
2.094166756,243.9321594,
2.095833302,244.1069336,
2.097500086,244.8569183,
2.099166632,244.7870789,
2.100833416,244.4920654,
2.102499962,243.5193634,
2.104166746,244.4794922,
2.105833292,243.051178,
2.107500076,245.3540192,
2.109166622,244.9877319,
2.110833406,243.876358,
2.112499952,244.1658936,
2.114166737,243.730896,
2.115833521,243.5803375,
2.117500067,243.9561768,
2.119166613,243.9304962,
2.120833397,243.9607697,
2.122499943,244.0619049,
2.124166727,245.1189117,
2.125833273,243.8118439,
2.127500057,243.7481842,
2.129166603,244.4307251,
2.130833387,243.8823853,
2.132500172,243.4755707,
2.134166718,244.1699829,
2.135833502,242.9234161,
2.137500048,242.8325958,
2.139166832,244.1808167,
2.140833378,241.8417664,
2.142500162,243.6447906,
2.144166708,244.3285522,
2.145833254,241.2979889,
2.147500038,241.7111511,
2.149166584,244.1368713,
2.150833368,241.8510895,
2.152500153,242.5762024,
2.154166698,243.3804626,
2.155833483,244.8664246,
2.157500029,243.7831726,
2.159166813,243.5277863,
2.160833597,243.0732117,
2.162499905,242.671051,
2.164166689,241.6617737,
2.165833235,243.2583008,
2.167500019,242.8911285,
2.169166803,244.2105408,
2.170833349,242.6062622,
2.172500134,243.1090546,
2.174166679,242.7166901,
2.175833464,243.9075165,
2.177500248,243.4210205,
2.179166555,243.012558,
2.18083334,242.0727386,
2.182499886,243.0028839,
2.18416667,242.2149811,
2.185833454,241.86409,
2.1875,242.1795502,
2.189166784,243.1412964,
2.19083333,242.9753418,
2.192500114,242.0917969,
2.194166899,242.933075,
2.195833445,243.177475,
2.19749999,241.9754028,
2.199166536,241.1034698,
2.200833321,242.4933929,
2.202500105,242.7473755,
2.204166651,241.0381165,
2.205833435,242.7118835,
2.207499981,241.3747406,
2.209166765,243.3462219,
2.210833549,242.0505524,
2.212500095,241.0843811,
2.21416688,242.245697,
2.215833187,241.7422943,
2.217499971,240.9348602,
2.219166756,243.0967407,
2.220833302,242.4523926,
2.222500086,241.6271515,
2.224166632,242.0195465,
2.225833416,241.6305389,
2.2275002,240.9945831,
2.229166746,241.6722717,
2.23083353,242.8361206,
2.232499838,242.9063873,
2.234166622,241.505188,
2.235833406,240.5797119,
2.237499952,241.7001648,
2.239166737,240.6470947,
2.240833282,240.6372681,
2.242500067,242.2616272,
2.244166851,242.897522,
2.245833397,242.1578522,
2.247500181,240.211853,
2.249166727,241.7536163,
2.250833273,241.4101563,
2.252500057,242.4538269,
2.254166603,240.8465271,
2.255833387,242.7708282,
2.257499933,242.6129761,
2.259166718,241.6115417,
2.260833502,240.8178864,
2.262500048,241.6239471,
2.264166832,240.774704,
2.265833378,241.3525391,
2.267500162,242.4184265,
2.269166708,241.0674591,
2.270833254,238.8160553,
2.272500038,240.2425842,
2.274166584,241.148468,
2.275833368,239.295639,
2.277500153,239.7222595,
2.279166698,241.1352997,
2.280833483,241.7736511,
2.282500029,241.8028412,
2.284166813,239.1778107,
2.285833597,242.0258636,
2.287499905,240.5391083,
2.289166689,239.4195709,
2.290833235,238.3651581,
2.292500019,238.7009583,
2.294166803,241.7636719,
2.295833349,240.8666229,
2.297500134,240.9421387,
2.299166679,241.4272614,
2.300833464,239.3131714,
2.302500248,240.4923096,
2.304166555,241.6147308,
2.30583334,239.1045837,
2.307499886,240.9897461,
2.30916667,241.4858398,
2.310833454,240.6598053,
2.3125,239.9384155,
2.314166784,239.8338013,
2.31583333,240.6434174,
2.317500114,240.6880646,
2.319166899,241.0949249,
2.320833445,239.9954681,
2.32249999,239.2662659,
2.324166536,240.3347321,
2.325833321,240.9355316,
2.327500105,238.1865082,
2.329166651,240.5259857,
2.330833435,240.3804016,
2.332499981,239.9688416,
2.334166765,241.6022186,
2.335833549,240.348053,
2.337500095,240.1145325,
2.33916688,238.7245941,
2.340833187,240.0951843,
2.342499971,240.4930573,
2.344166756,240.1068115,
2.345833302,241.6623993,
2.347500086,238.8559723,
2.349166632,238.5711823,
2.350833416,240.5720978,
2.3525002,239.6511383,
2.354166746,238.5075684,
2.35583353,239.5680847,
2.357499838,240.6290131,
2.359166622,239.3475952,
2.360833406,239.119751,
2.362499952,239.9373322,
2.364166737,236.109436,
2.365833282,240.2288055,
2.367500067,237.9589081,
2.369166851,240.1893921,
2.370833397,238.9829407,
2.372500181,240.5724792,
2.374166727,239.1322174,
2.375833273,240.9120483,
2.377500057,239.1365509,
2.379166603,239.6749268,
2.380833387,239.4024506,
2.382499933,240.3129578,
2.384166718,238.8284302,
2.385833502,239.1429443,
2.387500048,239.5287018,
2.389166832,238.7269135,
2.390833378,238.8645782,
2.392500162,238.071991,
2.394166708,238.1595154,
2.395833254,239.5449066,
2.397500038,240.3371124,
2.399166584,240.4199829,
2.400833368,237.7187805,
2.402500153,238.384613,
2.404166698,239.4213104,
2.405833483,238.3453217,
2.407500029,239.7436981,
2.409166813,239.1264191,
2.410833597,237.6378937,
2.412499905,239.049118,
2.414166689,238.1789551,
2.415833235,239.1397705,
2.417500019,237.4649963,
2.419166803,239.4758453,
2.420833349,240.2297516,
2.422500134,239.3750305,
2.424166679,237.2678833,
2.425833464,239.2129822,
2.427500248,239.8540497,
2.429166555,238.0915985,
2.43083334,238.8767548,
2.432499886,238.7407532,
2.43416667,240.2861176,
2.435833454,238.8701477,
2.4375,236.0274658,
2.439166784,240.2876282,
2.44083333,237.7843475,
2.442500114,237.5887451,
2.444166899,239.1985321,
2.445833445,237.7438202,
2.44749999,238.3068695,
2.449166536,239.2423096,
2.450833321,237.9798737,
2.452500105,238.1114197,
2.454166651,239.4029083,
2.455833435,238.5094452,
2.457499981,238.4574127,
2.459166765,238.5835571,
2.460833549,238.7272644,
2.462500095,239.1256104,
2.46416688,237.5487061,
2.465833187,238.3499603,
2.467499971,236.3818054,
2.469166756,240.0701599,
2.470833302,238.8292389,
2.472500086,238.1620483,
2.474166632,236.8103638,
2.475833416,237.7679901,
2.4775002,236.4716187,
2.479166746,236.8889008,
2.48083353,236.8749084,
2.482499838,238.6616669,
2.484166622,236.2385712,
2.485833406,238.2476959,
2.487499952,237.166748,
2.489166737,236.9310608,
2.490833282,237.9949036,
2.492500067,237.4723816,
2.494166851,237.8465271,
2.495833397,238.3086853,
2.497500181,237.0680695,
2.499166727,237.4270935,
2.500833273,238.1419678,
2.502500057,236.2362518,
2.504166603,237.2392426,
2.505833387,236.7034454,
2.507499933,236.4543152,
2.509166718,236.6983795,
2.510833502,238.371582,
2.512500048,238.6840363,
2.514166832,238.3742676,
2.515833378,236.4456024,
2.517500162,237.6356049,
2.519166708,236.7850494,
2.520833254,237.6435852,
2.522500038,238.227478,
2.524166584,237.5437622,
2.525833368,238.0810242,
2.527500153,237.5092926,
2.529166698,237.6322784,
2.530833483,237.3993683,
2.532500029,237.934967,
2.534166813,236.7932587,
2.535833597,237.8110046,
2.537499905,237.5388947,
2.539166689,237.6424713,
2.540833235,237.3100739,
2.542500019,236.3347473,
2.544166803,237.9058075,
2.545833349,238.2332001,
2.547500134,237.026001,
2.549166679,236.4634552,
2.550833464,236.6847839,
2.552500248,237.5985565,
2.554166555,236.9949951,
2.55583334,237.2887268,
2.557499886,238.2516174,
2.55916667,237.2471313,
2.560833454,238.7002258,
2.5625,236.8296814,
2.564166784,235.8747711,
2.56583333,237.6011047,
2.567500114,236.4762573,
2.569166899,238.2837067,
2.570833445,236.2767792,
2.57249999,235.887558,
2.574166536,236.9071503,
2.575833321,237.754715,
2.577500105,237.0155182,
2.579166651,235.7890472,
2.580833435,239.7747498,
2.582499981,236.504364,
2.584166765,238.0144196,
2.585833549,237.373703,
2.587500095,235.9200287,
2.58916688,238.1746979,
2.590833187,238.5695953,
2.592499971,236.9476318,
2.594166756,235.8263092,
2.595833302,235.5111694,
2.597500086,237.1356049,
2.599166632,237.8739014,
2.600833416,238.1363373,
2.6025002,236.9946442,
2.604166746,237.2133789,
2.60583353,237.4849701,
2.607499838,236.1785889,
2.609166622,238.1119537,
2.610833406,236.3737793,
2.612499952,236.9744263,
2.614166737,236.0931702,
2.615833282,236.9347229,
2.617500067,236.9267731,
2.619166851,236.4631195,
2.620833397,236.6654358,
2.622500181,237.5039978,
2.624166727,236.129715,
2.625833273,236.5243378,
2.627500057,236.0661926,
2.629166603,235.9557953,
2.630833387,238.2790375,
2.632499933,234.664093,
2.634166718,237.1202393,
2.635833502,236.7736969,
2.637500048,235.5751648,
2.639166832,237.3038483,
2.640833378,236.5774231,
2.642500162,237.2722473,
2.644166708,235.5991364,
2.645833254,236.7527008,
2.647500038,236.1009979,
2.649166584,236.5791321,
2.650833368,236.772934,
2.652500153,237.243988,
2.654166698,235.5804749,
2.655833483,236.7481689,
2.657500029,236.5562744,
2.659166813,235.3593903,
2.660833597,234.8965607,
2.662499905,236.8636627,
2.664166689,236.4572906,
2.665833235,235.5635376,
2.667500019,237.5900574,
2.669166803,236.2409058,
2.670833349,234.5960541,
2.672500134,235.8713684,
2.674166679,236.7498932,
2.675833464,235.9386902,
2.677500248,236.4447937,
2.679166555,236.8718414,
2.68083334,237.1403656,
2.682499886,237.2436371,
2.68416667,237.7428284,
2.685833454,236.0062866,
2.6875,235.9819336,
2.689166784,237.6992035,
2.69083333,235.2229614,
2.692500114,236.3377838,
2.694166899,236.1517487,
2.695833445,235.2010651,
2.69749999,236.3278961,
2.699166536,238.1306458,
2.700833321,235.8065491,
2.702500105,237.0248566,
2.704166651,235.1935272,
2.705833435,236.0585022,
2.707499981,236.4484253,
2.709166765,235.5676117,
2.710833549,234.3041687,
2.712500095,234.534317,
2.71416688,236.8440704,
2.715833187,235.2578735,
2.717499971,236.4588165,
2.719166756,235.0045776,
2.720833302,235.284317,
2.722500086,236.0259857,
2.724166632,237.2530365,
2.725833416,235.8041687,
2.7275002,236.3026733,
2.729166746,235.2168579,
2.73083353,235.0963898,
2.732499838,235.0849152,
2.734166622,233.9053802,
2.735833406,235.6386566,
2.737499952,235.66362,
2.739166737,235.1623535,
2.740833282,236.3343048,
2.742500067,234.3803558,
2.744166851,234.6877441,
2.745833397,237.0135803,
2.747500181,234.3056335,
2.749166727,235.6960297,
2.750833273,236.1070251,
2.752500057,237.1411133,
2.754166603,236.1777954,
2.755833387,236.255188,
2.757499933,235.8331146,
2.759166718,235.1073456,
2.760833502,236.7012939,
2.762500048,235.1605682,
2.764166832,234.7969513,
2.765833378,235.7530823,
2.767500162,236.7967377,
2.769166708,234.9695435,
2.770833254,235.029953,
2.772500038,235.1953888,
2.774166584,236.1035156,
2.775833368,236.9257355,
2.777500153,235.452652,
2.779166698,236.0844421,
2.780833483,234.3486938,
2.782500029,234.5228271,
2.784166813,236.0292664,
2.785833597,235.9206238,
2.787499905,235.395401,
2.789166689,234.2565918,
2.790833235,235.0003357,
2.792500019,235.301651,
2.794166803,235.9854736,
2.795833349,238.1086731,
2.797500134,234.9208527,
2.799166679,236.2126465,
2.800833464,233.2387848,
2.802500248,234.9367218,
2.804166555,234.637619,
2.80583334,234.146286,
2.807499886,236.5142975,
2.80916667,237.9024048,
2.810833454,234.1147766,
2.8125,236.8242798,
2.814166784,235.048233,
2.81583333,233.6872711,
2.817500114,235.4161224,
2.819166899,234.0636292,
2.820833445,235.4669189,
2.82249999,233.8968048,
2.824166536,233.3294525,
2.825833321,234.2565002,
2.827500105,235.4606171,
2.829166651,235.0595551,
2.830833435,236.0131836,
2.832499981,235.0626373,
2.834166765,236.2284241,
2.835833549,235.0397034,
2.837500095,233.4342041,
2.83916688,236.4346466,
2.840833187,234.7476349,
2.842499971,237.1876221,
2.844166756,234.3708649,
2.845833302,234.8752136,
2.847500086,234.7212067,
2.849166632,236.2564392,
2.850833416,236.1264038,
2.8525002,235.9098053,
2.854166746,234.7045898,
2.85583353,234.6256866,
2.857499838,236.1844177,
2.859166622,234.6808929,
2.860833406,233.4802246,
2.862499952,234.0648804,
2.864166737,233.6681366,
2.865833282,235.0637207,
2.867500067,233.9117889,
2.869166851,235.0296021,
2.870833397,234.8273621,
2.872500181,234.5865784,
2.874166727,234.786087,
2.875833273,233.6928711,
2.877500057,235.5901489,
2.879166603,234.5292816,
2.880833387,233.0055695,
2.882499933,234.2629089,
2.884166718,234.1990051,
2.885833502,233.5236206,
2.887500048,234.4100952,
2.889166832,233.8643188,
2.890833378,233.7348022,
2.892500162,234.4133759,
2.894166708,235.3710175,
2.895833254,235.0180817,
2.897500038,234.3637238,
2.899166584,235.4069977,
2.900833368,234.2536316,
2.902500153,234.8216858,
2.904166698,233.0426178,
2.905833483,235.2608185,
2.907500029,235.8034821,
2.909166813,234.3332214,
2.910833597,235.5550995,
2.912499905,234.2090759,
2.914166689,235.326355,
2.915833235,234.4622803,
2.917500019,234.5356903,
2.919166803,236.5551453,
2.920833349,234.8373566,
2.922500134,235.076004,
2.924166679,234.1326599,
2.925833464,235.4024811,
2.927500248,234.3034515,
2.929166555,234.0069885,
2.93083334,234.460495,
2.932499886,234.3104553,
2.93416667,232.7424622,
2.935833454,233.2679291,
2.9375,233.5301514,
2.939166784,234.5795898,
2.94083333,234.6572723,
2.942500114,233.4924316,
2.944166899,234.9624329,
2.945833445,233.2073822,
2.94749999,233.5042419,
2.949166536,233.4562378,
2.950833321,234.3306885,
2.952500105,233.2439423,
2.954166651,233.1749573,
2.955833435,234.8177795,
2.957499981,233.7594299,
2.959166765,234.5774994,
2.960833549,232.8475647,
2.962500095,232.3973846,
2.96416688,234.6896973,
2.965833187,233.5723572,
2.967499971,233.5405273,
2.969166756,233.3350372,
2.970833302,233.3399506,
2.972500086,234.0021973,
2.974166632,232.9908905,
2.975833416,233.3876038,
2.9775002,233.3478546,
2.979166746,234.3144379,
2.98083353,235.1239471,
2.982499838,231.2632141,
2.984166622,234.7035675,
2.985833406,233.1402893,
2.987499952,233.6693115,
2.989166737,233.9328461,
2.990833282,232.5291901,
2.992500067,232.5838776,
2.994166851,233.6335297,
2.995833397,234.1833038,
2.997500181,232.5573425,
2.999166727,233.9116211,
3.000833273,233.2255249,
3.002500057,233.4650421,
3.004166603,234.487854,
3.005833387,232.0139008,
3.007499933,233.7194672,
3.009166718,233.7604065,
3.010833502,233.5446472,
3.012500048,233.0244293,
3.014166832,234.0613403,
3.015833378,233.7769623,
3.017500162,233.5083466,
3.019166708,233.2995911,
3.020833254,233.2930145,
3.022500038,234.4368896,
3.024166584,233.3304901,
3.025833368,233.0456085,
3.027500153,234.9311829,
3.029166698,233.8334961,
3.030833483,234.0002899,
3.032500029,234.5159302,
3.034166813,232.6137085,
3.035833597,232.7400513,
3.037499905,235.3383636,
3.039166689,235.1912384,
3.040833235,232.8672791,
3.042500019,234.7463837,
3.044166803,234.6419373,
3.045833349,233.5640564,
3.047500134,232.1898499,
3.049166679,234.0546265,
3.050833464,233.3887482,
3.052500248,233.5158691,
3.054166555,232.9577484,
3.05583334,232.3412781,
3.057499886,233.2380371,
3.05916667,232.1517029,
3.060833454,233.7337646,
3.0625,232.6723633,
3.064166784,232.1895294,
3.06583333,232.9515991,
3.067500114,232.5287018,
3.069166899,232.7758789,
3.070833445,233.3716278,
3.07249999,233.1051178,
3.074166536,233.8332672,
3.075833321,232.9840546,
3.077500105,233.2492981,
3.079166651,233.7049713,
3.080833435,232.3211365,
3.082499981,233.8238831,
3.084166765,232.611145,
3.085833549,231.3855286,
3.087500095,233.2061615,
3.08916688,232.946579,
3.090833187,232.2883606,
3.092499971,233.6233521,
3.094166756,232.5798645,
3.095833302,232.8355408,
3.097500086,234.6709595,
3.099166632,232.9522247,
3.100833416,233.0984497,
3.1025002,232.9758606,
3.104166746,233.6014862,
3.10583353,233.4270935,
3.107499838,232.3111267,
3.109166622,233.4502716,
3.110833406,232.2504883,
3.112499952,233.3465271,
3.114166737,233.3135681,
3.115833282,232.9740601,
3.117500067,234.0436554,
3.119166851,233.6358795,
3.120833397,234.5274353,
3.122500181,232.9329834,
3.124166727,232.7693329,
3.125833273,232.4823151,
3.127500057,233.2243805,
3.129166603,233.2267761,
3.130833387,231.9396362,
3.132499933,233.5986938,
3.134166718,233.2866974,
3.135833502,232.0324097,
3.137500048,233.5958405,
3.139166832,232.6944122,
3.140833378,232.8816071,
3.142500162,233.5733948,
3.144166708,233.9305573,
3.145833254,232.1718445,
3.147500038,232.9916534,
3.149166584,231.3361969,
3.150833368,233.4642944,
3.152500153,233.229538,
3.154166698,232.716095,
3.155833483,230.6242371,
3.157500029,233.143219,
3.159166813,232.5339966,
3.160833597,233.7283936,
3.162499905,232.675827,
3.164166689,233.1475983,
3.165833235,233.4949341,
3.167500019,233.5834198,
3.169166803,233.6729889,
3.170833349,232.9762726,
3.172500134,233.0106049,
3.174166679,231.2556305,
3.175833464,233.3321838,
3.177500248,233.8770294,
3.179166555,231.5660706,
3.18083334,232.1336517,
3.182499886,232.9527893,
3.18416667,231.7819977,
3.185833454,233.2734985,
3.1875,232.7055969,
3.189166784,234.3867645,
3.19083333,233.114502,
3.192500114,233.1457214,
3.194166899,233.1108093,
3.195833445,232.7417755,
3.19749999,232.0497284,
3.199166536,233.7451477,
3.200833321,232.6206207,
3.202500105,231.9194946,
3.204166651,232.9147644,
3.205833435,232.0483704,
3.207499981,232.7349091,
3.209166765,232.5969086,
3.210833549,233.0630646,
3.212500095,233.6016846,
3.21416688,232.5171051,
3.215833187,231.9648743,
3.217499971,232.597702,
3.219166756,232.3748627,
3.220833302,233.301178,
3.222500086,233.7272186,
3.224166632,232.2581024,
3.225833416,232.2558746,
3.2275002,233.0813141,
3.229166746,232.7240753,
3.23083353,230.9727173,
3.232499838,232.3281403,
3.234166622,233.2197266,
3.235833406,231.5253601,
3.237499952,233.7628937,
3.239166737,232.3473206,
3.240833282,232.9302063,
3.242500067,231.8670959,
3.244166851,232.936554,
3.245833397,232.1011047,
3.247500181,232.1000671,
3.249166727,232.4962158,
3.250833273,232.4940338,
3.252500057,234.0130005,
3.254166603,232.5540314,
3.255833387,231.8650208,
3.257499933,233.8464813,
3.259166718,233.0839539,
3.260833502,231.0730438,
3.262500048,232.3090363,
3.264166832,230.5479431,
3.265833378,230.9639893,
3.267500162,231.8934021,
3.269166708,231.8380737,
3.270833254,231.3917542,
3.272500038,230.9420776,
3.274166584,230.7674408,
3.275833368,231.931366,
3.277500153,232.8645935,
3.279166698,231.9970703,
3.280833483,232.7353363,
3.282500029,232.7128906,
3.284166813,232.3317871,
3.285833597,233.4528503,
3.287499905,231.2017365,
3.289166689,232.6439362,
3.290833235,231.6540527,
3.292500019,231.749115,
3.294166803,232.3173828,
3.295833349,232.9102173,
3.297500134,233.2814331,
3.299166679,232.3171082,
3.300833464,232.4560089,
3.302500248,232.3153229,
3.304166555,233.221283,
3.30583334,230.8009491,
3.307499886,232.9841003,
3.30916667,232.9865875,
3.310833454,231.7783661,
3.3125,232.9543457,
3.314166784,233.0346985,
3.31583333,230.41745,
3.317500114,232.3199921,
3.319166899,232.8526306,
3.320833445,231.9999542,
3.32249999,233.1485443,
3.324166536,230.6742096,
3.325833321,231.8583069,
3.327500105,232.3476105,
3.329166651,230.7648163,
3.330833435,231.5471802,
3.332499981,233.0906525,
3.334166765,232.1916199,
3.335833549,232.7893219,
3.337500095,232.6758118,
3.33916688,232.3350525,
3.340833187,230.9226685,
3.342499971,231.726059,
3.344166756,233.4544067,
3.345833302,231.9711914,
3.347500086,231.9430237,
3.349166632,231.2213745,
3.350833416,232.3276825,
3.3525002,230.9646912,
3.354166746,231.3475647,
3.35583353,232.978363,
3.357499838,230.6645508,
3.359166622,231.684021,
3.360833406,232.1640625,
3.362499952,233.7451782,
3.364166737,232.5696716,
3.365833282,231.8873596,
3.367500067,230.7701416,
3.369166851,232.8695374,
3.370833397,233.2326508,
3.372500181,231.3384857,
3.374166727,230.6452332,
3.375833273,230.9786835,
3.377500057,231.9797363,
3.379166603,231.5121307,
3.380833387,231.7733307,
3.382499933,231.5958405,
3.384166718,231.5592651,
3.385833502,233.2027588,
3.387500048,232.1444855,
3.389166832,230.207489,
3.390833378,231.6333008,
3.392500162,231.609314,
3.394166708,230.2142181,
3.395833254,231.8458099,
3.397500038,232.2931213,
3.399166584,231.0318298,
3.400833368,232.0007935,
3.402500153,231.4382324,
3.404166698,232.2578735,
3.405833483,232.8319702,
3.407500029,232.4875336,
3.409166813,232.0430908,
3.410833597,231.7805176,
3.412499905,230.7006378,
3.414166689,232.7212067,
3.415833235,231.7466888,
3.417500019,231.6578217,
3.419166803,231.3155975,
3.420833349,230.766983,
3.422500134,229.9853973,
3.424166679,231.6667633,
3.425833464,232.0210114,
3.427500248,233.0640717,
3.429166555,232.1199341,
3.43083334,230.3801727,
3.432499886,231.8711395,
3.43416667,231.3427734,
3.435833454,231.734024,
3.4375,230.6177368,
3.439166784,230.8200684,
3.44083333,232.4546661,
3.442500114,231.9297791,
3.444166899,231.5052338,
3.445833445,230.712204,
3.44749999,231.7198486,
3.449166536,231.8410187,
3.450833321,231.2319946,
3.452500105,232.9626923,
3.454166651,232.8225098,
3.455833435,230.5224609,
3.457499981,233.5381927,
3.459166765,230.9554901,
3.460833549,231.5574036,
3.462500095,233.3909912,
3.46416688,232.0705109,
3.465833187,232.2090912,
3.467499971,232.1940918,
3.469166756,231.6655273,
3.470833302,231.7070923,
3.472500086,230.5591125,
3.474166632,232.2254791,
3.475833416,231.4394531,
3.4775002,231.2850342,
3.479166746,231.2249298,
3.48083353,231.1080322,
3.482499838,230.6324921,
3.484166622,231.9429169,
3.485833406,230.7986908,
3.487499952,230.7670135,
3.489166737,231.8690643,
3.490833282,231.0489807,
3.492500067,229.89151,
3.494166851,231.4092102,
3.495833397,233.0761414,
3.497500181,230.7881775,
3.499166727,231.5361633,
3.500833273,231.8438568,
3.502500057,231.3526306,
3.504166603,232.3465576,
3.505833387,230.2733307,
3.507499933,231.1119843,
3.509166718,230.6721344,
3.510833502,231.6110535,
3.512500048,231.0729065,
3.514166832,231.638382,
3.515833378,230.8241577,
3.517500162,229.9154053,
3.519166708,231.5003052,
3.520833254,230.6439209,
3.522500038,231.6332245,
3.524166584,231.1318512,
3.525833368,230.4393463,
3.527500153,228.9207153,
3.529166698,230.371109,
3.530833483,229.3405304,
3.532500029,231.0978088,
3.534166813,230.9097748,
3.535833597,231.0287323,
3.537499905,230.5506744,
3.539166689,231.6749115,
3.540833235,232.8515625,
3.542500019,230.28862,
3.544166803,231.1633606,
3.545833349,230.6026764,
3.547500134,231.3180237,
3.549166679,231.8855438,
3.550833464,230.6689911,
3.552500248,231.2051239,
3.554166555,231.0848694,
3.55583334,231.807663,
3.557499886,230.5320129,
3.55916667,231.9619598,
3.560833454,232.0251923,
3.5625,231.5096283,
3.564166784,231.9653015,
3.56583333,232.2234955,
3.567500114,229.3206635,
3.569166899,232.7304077,
3.570833445,231.2709045,
3.57249999,231.3865356,
3.574166536,231.1052551,
3.575833321,229.1248627,
3.577500105,230.2409821,
3.579166651,232.3618469,
3.580833435,231.7129517,
3.582499981,230.294632,
3.584166765,231.7689972,
3.585833549,232.1585541,
3.587500095,231.1157379,
3.58916688,229.9430847,
3.590833187,230.2622223,
3.592499971,234.3585663,
3.594166756,229.2349243,
3.595833302,230.8996735,
3.597500086,229.5714417,
3.599166632,231.4481506,
3.600833416,231.3740234,
3.6025002,230.1432953,
3.604166746,231.1189117,
3.60583353,231.1277771,
3.607499838,231.9133606,
3.609166622,230.2387238,
3.610833406,231.3920135,
3.612499952,232.7661743,
3.614166737,230.5487976,
3.615833282,230.6343994,
3.617500067,231.1844788,
3.619166851,230.6095734,
3.620833397,231.5596924,
3.622500181,231.2557678,
3.624166727,230.0148315,
3.625833273,230.2523193,
3.627500057,230.7510986,
3.629166603,231.343689,
3.630833387,230.240921,
3.632499933,229.3924408,
3.634166718,230.1928406,
3.635833502,231.2516022,
3.637500048,230.5080566,
3.639166832,230.0301971,
3.640833378,231.0050201,
3.642500162,231.3327484,
3.644166708,230.3000336,
3.645833254,231.0975647,
3.647500038,230.1359253,
3.649166584,229.6178741,
3.650833368,230.809494,
3.652500153,230.823822,
3.654166698,231.0358582,
3.655833483,230.7306519,
3.657500029,230.0444794,
3.659166813,229.7853088,
3.660833597,230.6220093,
3.662499905,231.6139679,
3.664166689,230.7008667,
3.665833235,231.8391876,
3.667500019,230.443161,
3.669166803,230.432785,
3.670833349,231.6503601,
3.672500134,230.5331421,
3.674166679,229.5515289,
3.675833464,230.3443451,
3.677500248,230.4851379,
3.679166555,229.3979034,
3.68083334,230.8175659,
3.682499886,230.8637848,
3.68416667,231.3552856,
3.685833454,229.379837,
3.6875,231.298111,
3.689166784,230.3446655,
3.69083333,230.9619293,
3.692500114,230.4035492,
3.694166899,230.3635254,
3.695833445,231.1329651,
3.69749999,230.4923248,
3.699166536,229.8897858,
3.700833321,231.5330048,
3.702500105,230.2009125,
3.704166651,230.2065125,
3.705833435,231.1407471,
3.707499981,230.4782867,
3.709166765,230.2510071,
3.710833549,229.3178558,
3.712500095,230.3613586,
3.71416688,230.1015625,
3.715833187,229.5732269,
3.717499971,229.6372528,
3.719166756,231.6930237,
3.720833302,231.4095764,
3.722500086,231.7306519,
3.724166632,230.1820221,
3.725833416,229.3748016,
3.7275002,230.9590607,
3.729166746,232.1750183,
3.73083353,231.7862854,
3.732499838,231.1311951,
3.734166622,230.6304169,
3.735833406,231.1582184,
3.737499952,230.5752869,
3.739166737,230.5550842,
3.740833282,230.0117493,
3.742500067,230.4150543,
3.744166851,230.3664551,
3.745833397,231.1035156,
3.747500181,230.2085876,
3.749166727,231.8902283,
3.750833273,231.3795166,
3.752500057,230.9854889,
3.754166603,229.3769073,
3.755833387,229.1891174,
3.757499933,232.0830536,
3.759166718,230.7971497,
3.760833502,231.9343872,
3.762500048,231.124115,
3.764166832,231.0080872,
3.765833378,230.8583069,
3.767500162,232.4992371,
3.769166708,230.7670288,
3.770833254,230.0436249,
3.772500038,230.158905,
3.774166584,229.2958374,
3.775833368,230.1210327,
3.777500153,230.3691864,
3.779166698,230.0255737,
3.780833483,230.0989838,
3.782500029,230.4498291,
3.784166813,231.1195374,
3.785833597,230.5011444,
3.787499905,230.3912659,
3.789166689,230.9918976,
3.790833235,231.8002167,
3.792500019,230.8383636,
3.794166803,231.4833832,
3.795833349,229.0690613,
3.797500134,231.124939,
3.799166679,229.0922546,
3.800833464,229.9687195,
3.802500248,231.3937225,
3.804166555,230.7363129,
3.80583334,230.2391663,
3.807499886,229.8995819,
3.80916667,229.6094513,
3.810833454,229.8956757,
3.8125,228.9794312,
3.814166784,229.9586792,
3.81583333,231.4228973,
3.817500114,229.0786285,
3.819166899,229.7559357,
3.820833445,232.1391449,
3.82249999,229.7782288,
3.824166536,230.5200806,
3.825833321,229.5160828,
3.827500105,231.4578094,
3.829166651,230.8499908,
3.830833435,228.0333405,
3.832499981,228.8864594,
3.834166765,231.4840546,
3.835833549,229.1998291,
3.837500095,230.2829437,
3.83916688,230.9196167,
3.840833187,229.1808014,
3.842499971,230.6200562,
3.844166756,230.3806458,
3.845833302,231.3930817,
3.847500086,230.0632477,
3.849166632,230.9340363,
3.850833416,229.5260315,
3.8525002,229.817215,
3.854166746,231.3340149,
3.85583353,230.0244598,
3.857499838,230.1524506,
3.859166622,230.0138245,
3.860833406,228.7098083,
3.862499952,231.1014709,
3.864166737,229.7055054,
3.865833282,229.9020996,
3.867500067,230.0488739,
3.869166851,230.7533112,
3.870833397,228.3979492,
3.872500181,229.7481384,
3.874166727,230.7502899,
3.875833273,230.2247772,
3.877500057,229.9154968,
3.879166603,231.2078552,
3.880833387,231.0990448,
3.882499933,230.4635773,
3.884166718,231.4704132,
3.885833502,230.1908417,
3.887500048,230.151825,
3.889166832,231.6315308,
3.890833378,231.4138031,
3.892500162,228.4787598,
3.894166708,228.7469788,
3.895833254,230.349472,
3.897500038,231.098175,
3.899166584,230.4298248,
3.900833368,229.5908356,
3.902500153,229.8717651,
3.904166698,230.3353729,
3.905833483,229.3320618,
3.907500029,230.9988403,
3.909166813,230.3973541,
3.910833597,230.5388794,
3.912499905,229.4548645,
3.914166689,229.511261,
3.915833235,229.6393738,
3.917500019,230.3862,
3.919166803,230.4158478,
3.920833349,228.7957764,
3.922500134,229.3965607,
3.924166679,229.4606934,
3.925833464,229.5603943,
3.927500248,229.7602081,
3.929166555,229.1103668,
3.93083334,229.7082977,
3.932499886,231.0800781,
3.93416667,230.4435577,
3.935833454,229.1034088,
3.9375,232.0391846,
3.939166784,230.7316437,
3.94083333,229.5393219,
3.942500114,228.4534454,
3.944166899,230.2579803,
3.945833445,229.9101257,
3.94749999,229.517868,
3.949166536,231.8014221,
3.950833321,230.3256073,
3.952500105,230.8255615,
3.954166651,230.1974182,
3.955833435,228.7350159,
3.957499981,230.1692657,
3.959166765,230.4032898,
3.960833549,229.3565826,
3.962500095,230.3288422,
3.96416688,229.3132629,
3.965833187,230.9418182,
3.967499971,230.6498413,
3.969166756,228.7391815,
3.970833302,231.9009094,
3.972500086,229.4100494,
3.974166632,229.3346558,
3.975833416,230.451416,
3.9775002,229.4363708,
3.979166746,230.5513458,
3.98083353,229.8381805,
3.982499838,229.8535309,
3.984166622,230.5882111,
3.985833406,230.4403229,
3.987499952,229.5675659,
3.989166737,229.908371,
3.990833282,230.2553253,
3.992500067,229.395874,
3.994166851,230.7397156,
3.995833397,229.0684509,
3.997500181,229.1373596,
3.999166727,230.6161041,
4.000833511,229.0252075,
4.002500057,228.6400146,
4.004166603,229.8140564,
4.005833626,230.5002136,
4.007500172,230.8823853,
4.009166718,229.3327942,
4.010833263,229.8868866,
4.012499809,228.8648987,
4.014166832,229.8403778,
4.015833378,228.8007507,
4.017499924,230.0269623,
4.019166946,230.8908081,
4.020833492,228.8648682,
4.022500038,230.831543,
4.024166584,228.358078,
4.025833607,231.505661,
4.027500153,229.1434326,

