1,,
Time (min),Intensity (a.u.),
0.0008333333535,276.7827454,
0.002500000177,278.6044922,
0.004166666884,278.7635498,
0.005833333358,280.6291199,
0.007500000298,278.3788757,
0.009166667238,279.0220947,
0.01083333418,278.4797058,
0.01250000019,278.4234924,
0.01416666713,280.2469788,
0.01583333313,283.8204346,
0.01750000194,278.6321716,
0.01916666701,279.8496399,
0.02083333395,282.1161194,
0.02250000089,279.4673157,
0.02416666783,281.0257568,
0.02583333477,279.670166,
0.02749999985,280.5612793,
0.02916666679,279.0437927,
0.03083333373,282.353363,
0.03250000253,281.4012146,
0.03416666761,281.4008179,
0.03583333641,279.5718689,
0.03750000149,279.5653076,
0.03916667029,277.4737549,
0.04083333537,278.4179382,
0.04250000045,282.3034058,
0.04416666925,279.1575012,
0.04583333433,281.1099854,
0.04750000313,280.9308777,
0.04916666821,278.2373657,
0.05083333328,276.7746277,
0.05250000209,280.1889648,
0.05416666716,279.1923828,
0.05583333597,277.7561035,
0.05750000104,280.4121399,
0.05916666612,278.0756531,
0.06083333492,280.3821106,
0.0625,280.5823669,
0.06416667253,278.8008728,
0.0658333376,279.5392456,
0.06750000268,277.6565552,
0.06916666776,276.8343811,
0.07083333284,282.1064453,
0.07249999791,277.5988159,
0.07416667044,279.8426208,
0.07583333552,281.518158,
0.0775000006,281.361969,
0.07916666567,280.1108398,
0.08083333075,279.0367737,
0.08250000328,280.7191162,
0.08416666836,281.4485779,
0.08583333343,279.4067078,
0.08749999851,282.7380676,
0.08916666359,280.4005737,
0.09083333611,277.1317444,
0.09250000119,277.5796204,
0.09416666627,279.337616,
0.09583333135,278.0850525,
0.09749999642,280.7139893,
0.09916666895,277.5940857,
0.100833334,276.7797852,
0.1024999991,276.4604492,
0.1041666642,277.6907043,
0.1058333293,278.5226746,
0.1075000018,278.0855103,
0.1091666669,278.8355408,
0.1108333319,277.2554932,
0.112499997,278.9879761,
0.1141666621,277.2258606,
0.1158333346,277.1957397,
0.1174999997,277.946106,
0.1191666648,279.1913757,
0.1208333299,279.2663269,
0.1224999949,279.533844,
0.1241666749,281.3087158,
0.1258333325,284.2445984,
0.1274999976,280.7791748,
0.1291666627,281.9866943,
0.1308333278,282.6976624,
0.1325000077,280.2605286,
0.1341666728,280.8061523,
0.1358333379,283.4012756,
0.137500003,284.8391113,
0.1391666681,280.9447632,
0.1408333331,282.0914612,
0.1424999982,280.1924744,
0.1441666782,282.0300293,
0.1458333284,281.8339844,
0.1475000083,280.6284485,
0.1491666585,281.8393555,
0.1508333385,281.8216553,
0.1525000036,284.8225708,
0.1541666687,277.493927,
0.1558333337,279.5628052,
0.1574999988,279.3479919,
0.1591666639,281.4954529,
0.1608333439,280.3531189,
0.162499994,279.9522095,
0.164166674,279.0169373,
0.1658333242,280.3149719,
0.1675000042,279.9989624,
0.1691666692,278.962738,
0.1708333343,277.9627991,
0.1724999994,285.9782104,
0.1741666645,282.0680847,
0.1758333296,278.9313049,
0.1775000095,283.9454346,
0.1791666597,282.6013794,
0.1808333397,286.9809265,
0.1824999899,281.8310242,
0.1841666698,280.2342834,
0.1858333498,282.3453369,
0.1875,280.8675842,
0.18916668,284.3735352,
0.1908333302,286.2149048,
0.1925000101,280.8897705,
0.1941666752,283.7924805,
0.1958333403,285.566864,
0.1975000054,286.4923706,
0.1991666704,278.122345,
0.2008333355,279.0596008,
0.2025000155,284.7851257,
0.2041666657,280.5702515,
0.2058333457,282.4897156,
0.2074999958,280.5377502,
0.2091666758,285.5069275,
0.2108333409,279.9997559,
0.212500006,281.9506226,
0.214166671,283.9020691,
0.2158333361,281.6092834,
0.2175000012,283.2544861,
0.2191666812,287.2428894,
0.2208333313,282.1390381,
0.2225000113,280.7160645,
0.2241666615,280.1803589,
0.2258333415,278.7699585,
0.2275000066,277.9621277,
0.2291666716,281.6396484,
0.2308333367,277.3091431,
0.2325000018,278.3532104,
0.2341666669,280.9731445,
0.2358333468,278.3882751,
0.237499997,281.2441101,
0.239166677,278.144104,
0.2408333272,279.827179,
0.2425000072,279.2176819,
0.2441666722,279.3879395,
0.2458333373,279.0533142,
0.2475000024,278.2285156,
0.2491666675,278.1691895,
0.2508333325,280.6390991,
0.2524999976,280.6806641,
0.2541666627,279.1451721,
0.2558333278,276.2112427,
0.2574999928,277.2088013,
0.2591666579,280.4023743,
0.2608333528,280.7427673,
0.2624999881,279.2786255,
0.264166683,277.9789429,
0.2658333182,278.1875,
0.2675000131,276.6352539,
0.2691666484,276.508606,
0.2708333433,278.2471008,
0.2725000083,278.718811,
0.2741666734,276.4521179,
0.2758333385,278.5221252,
0.2775000036,278.3546753,
0.2791666687,277.2593384,
0.2808333337,277.5102234,
0.2824999988,277.8765259,
0.2841666937,277.7088928,
0.285833329,277.2561951,
0.287499994,276.0093689,
0.2891666591,277.7778015,
0.290833354,278.7215576,
0.2925000191,280.3370056,
0.2941666543,278.4237061,
0.2958333194,277.4004822,
0.2975000143,278.3668213,
0.2991666794,280.5002441,
0.3008333445,279.8480835,
0.3024999797,280.647522,
0.3041666746,280.7441406,
0.3058333397,279.6938171,
0.3075000048,277.859375,
0.3091666996,276.6298218,
0.3108333349,276.6850281,
0.3125,277.7726746,
0.3141666651,276.7628784,
0.31583336,281.1036072,
0.317500025,278.9330444,
0.3191666603,276.7084961,
0.3208333254,279.5874329,
0.3225000203,278.4747009,
0.3241666853,278.4478455,
0.3258333504,279.709137,
0.3274999857,280.1760559,
0.3291666806,281.1523438,
0.3308333457,281.5774231,
0.3325000107,282.2019653,
0.3341666758,280.6478577,
0.3358333409,280.7504272,
0.337500006,283.5599976,
0.339166671,283.0863953,
0.3408333361,280.7675781,
0.342500031,284.6506958,
0.3441666663,279.0839539,
0.3458333313,279.7278442,
0.3474999964,284.4427795,
0.3491666913,282.1739807,
0.3508333564,279.9875488,
0.3524999917,279.3928528,
0.3541666567,279.789978,
0.3558333516,282.7540588,
0.3575000167,283.9248962,
0.3591666818,286.6799622,
0.360833317,279.8081665,
0.3625000119,279.7521362,
0.364166677,281.4578552,
0.3658333421,280.9125977,
0.3675000072,280.1800232,
0.3691666722,282.6015015,
0.3708333373,282.4026489,
0.3725000024,279.9109802,
0.3741666675,279.8012695,
0.3758333623,280.0505981,
0.3774999976,280.537323,
0.3791666627,280.8242798,
0.3808333278,283.835022,
0.3825000226,282.1416626,
0.3841666877,280.7520752,
0.385833323,283.4854431,
0.3874999881,283.3912048,
0.389166683,280.0510864,
0.390833348,279.0716553,
0.3925000131,281.6567688,
0.3941666484,283.1376648,
0.3958333433,277.1060486,
0.3975000083,277.611908,
0.3991666734,277.8568115,
0.4008333385,279.7550049,
0.4025000036,280.489563,
0.4041666687,282.5657043,
0.4058333337,277.6904297,
0.4074999988,277.3673401,
0.4091666937,278.9141235,
0.410833329,281.0136719,
0.412499994,281.343689,
0.4141666591,281.3269043,
0.415833354,277.3622437,
0.4175000191,280.5396729,
0.4191666543,279.5512695,
0.4208333194,279.8052368,
0.4225000143,280.390564,
0.4241666794,278.1917114,
0.4258333445,282.7895203,
0.4274999797,280.2085266,
0.4291666746,278.8227844,
0.4308333397,280.4347229,
0.4325000048,280.2037354,
0.4341666996,281.2301331,
0.4358333349,282.1339417,
0.4375,279.3287659,
0.4391666651,280.4046021,
0.44083336,279.7477112,
0.442500025,278.2454224,
0.4441666603,280.0220032,
0.4458333254,281.3662109,
0.4475000203,277.5012512,
0.4491666853,279.0939331,
0.4508333504,279.7559509,
0.4524999857,282.3797913,
0.4541666806,278.3964233,
0.4558333457,283.9613342,
0.4575000107,279.7733765,
0.4591666758,281.4844666,
0.4608333409,280.3144531,
0.462500006,277.7732544,
0.464166671,278.8353882,
0.4658333361,282.0679321,
0.467500031,282.2553406,
0.4691666663,282.8795166,
0.4708333313,276.3815918,
0.4724999964,281.2545166,
0.4741666913,277.880127,
0.4758333564,280.6677856,
0.4774999917,281.4308472,
0.4791666567,281.0800781,
0.4808333516,278.7514343,
0.4825000167,281.0333252,
0.4841666818,279.6105347,
0.485833317,277.1124878,
0.4875000119,278.617157,
0.489166677,278.6809998,
0.4908333421,279.9716797,
0.4925000072,276.7807617,
0.4941666722,279.1864929,
0.4958333373,279.4164429,
0.4975000024,279.0745239,
0.4991666675,282.1470032,
0.5008333325,279.3981323,
0.5024999976,278.1569519,
0.5041666627,280.3288269,
0.5058333278,280.0379333,
0.5074999928,278.7789917,
0.5091666579,278.0140686,
0.510833323,278.0463867,
0.5124999881,278.7419434,
0.5141666532,277.6287537,
0.5158333182,278.8167114,
0.5175000429,281.0847778,
0.5191666484,279.4534912,
0.5208333135,277.8325195,
0.5224999785,280.3887939,
0.5241667032,280.1659851,
0.5258333683,280.7124939,
0.5274999738,280.8930664,
0.5291666389,277.5758972,
0.5308333635,280.5914917,
0.5325000286,280.0476074,
0.5341666341,277.283905,
0.5358333588,280.4085693,
0.5375000238,280.1090088,
0.5391666889,280.0180054,
0.540833354,281.3296509,
0.5424999595,279.7311096,
0.5441666842,282.1473999,
0.5458333492,281.7232056,
0.5475000143,281.4599609,
0.5491666794,280.2876587,
0.5508333445,279.4067383,
0.5525000095,277.467865,
0.5541666746,278.8630676,
0.5558333993,282.3808899,
0.5575000048,280.144043,
0.5591666698,279.8804932,
0.5608333349,282.6223145,
0.5625,280.0030518,
0.5641667247,279.7669067,
0.5658333302,280.8017578,
0.5674999952,280.2440491,
0.5691667199,281.5983276,
0.5708333254,278.8300171,
0.5725000501,281.6434326,
0.5741666555,279.45047,
0.5758333206,280.5327148,
0.5775000453,281.460144,
0.5791666508,278.678009,
0.5808333755,282.9891968,
0.5825000405,277.6227112,
0.584166646,279.4809265,
0.5858333707,282.8479919,
0.5874999762,277.8926697,
0.5891667008,279.203125,
0.5908333659,279.2345581,
0.5924999714,279.692627,
0.5941666961,278.5465698,
0.5958333611,278.8979492,
0.5975000262,277.5161438,
0.5991666913,277.4845276,
0.6008332968,277.2292175,
0.6025000215,280.8291016,
0.6041666865,279.5427856,
0.6058333516,279.4500732,
0.6075000167,282.9146118,
0.6091666818,284.4050293,
0.6108333468,281.3699951,
0.6125000119,285.5865479,
0.614166677,280.7979736,
0.6158333421,278.6317749,
0.6175000072,278.9125061,
0.6191666722,278.1400757,
0.6208333373,281.8269653,
0.622500062,277.9381714,
0.6241666675,280.0343628,
0.6258333325,278.0247192,
0.6274999976,279.2258911,
0.6291666627,278.1022339,
0.6308333874,281.1466064,
0.6324999928,282.1004028,
0.6341666579,280.2372742,
0.6358333826,279.4273376,
0.6374999881,280.0658569,
0.6391667128,278.1138306,
0.6408333182,281.2520142,
0.6424999833,280.252533,
0.644166708,277.6306763,
0.6458333135,279.5690918,
0.6475000381,279.2700806,
0.6491667032,281.5045471,
0.6508333087,279.7086487,
0.6525000334,278.6185608,
0.6541666389,282.5248718,
0.6558333635,279.462677,
0.6575000286,277.14505,
0.6591666341,278.5559082,
0.6608333588,277.4795532,
0.6625000238,280.1230774,
0.6641666889,280.0789795,
0.665833354,281.6220398,
0.6674999595,277.838501,
0.6691666842,278.5744324,
0.6708333492,279.7455444,
0.6725000143,282.8441162,
0.6741666794,280.5214233,
0.6758333445,281.0965881,
0.6775000095,280.3950195,
0.6791666746,276.4698486,
0.6808333993,279.5446472,
0.6825000048,279.2218933,
0.6841666698,277.4012756,
0.6858333349,278.9222717,
0.6875,277.3405457,
0.6891667247,280.9668579,
0.6908333302,277.8268738,
0.6924999952,276.7161865,
0.6941667199,280.3201599,
0.6958333254,277.4217834,
0.6975000501,277.8653564,
0.6991666555,278.6488037,
0.7008333206,280.0299377,
0.7025000453,280.053894,
0.7041666508,287.1140442,
0.7058333755,283.1083069,
0.7075000405,280.787384,
0.709166646,281.0161133,
0.7108333707,279.3661804,
0.7124999762,280.6434326,
0.7141667008,277.5094604,
0.7158333659,280.1793823,
0.7174999714,278.5547485,
0.7191666961,280.0721436,
0.7208333611,279.962616,
0.7225000262,277.8518372,
0.7241666913,282.9184875,
0.7258332968,282.1412964,
0.7275000215,280.1381226,
0.7291666865,281.2429504,
0.7308333516,280.6806335,
0.7325000167,277.2932129,
0.7341666818,279.9048462,
0.7358333468,280.5858459,
0.7375000119,278.8977356,
0.739166677,279.1683655,
0.7408333421,279.6452637,
0.7425000072,279.7496948,
0.7441666722,283.9685974,
0.7458333373,280.8558044,
0.747500062,280.5621338,
0.7491666675,280.286438,
0.7508333325,277.9235229,
0.7524999976,279.5414429,
0.7541666627,279.0152283,
0.7558333874,278.7164001,
0.7574999928,282.5771179,
0.7591666579,279.9846802,
0.7608333826,277.5673218,
0.7624999881,279.3622131,
0.7641667128,280.3568726,
0.7658333182,277.9819946,
0.7674999833,278.6903992,
0.769166708,278.9110413,
0.7708333135,277.108429,
0.7725000381,278.675354,
0.7741667032,280.6224976,
0.7758333087,281.0953369,
0.7775000334,282.1705017,
0.7791666389,282.2056274,
0.7808333635,279.3025818,
0.7825000286,278.7107544,
0.7841666341,280.9352112,
0.7858333588,280.0901489,
0.7875000238,277.5721436,
0.7891666889,281.717865,
0.790833354,281.4403992,
0.7924999595,277.8155518,
0.7941666842,279.0184631,
0.7958333492,279.7805481,
0.7975000143,280.8153687,
0.7991666794,278.7768555,
0.8008333445,280.0983887,
0.8025000095,282.1877136,
0.8041666746,276.9829712,
0.8058333993,277.9647217,
0.8075000048,281.1747437,
0.8091666698,279.2822266,
0.8108333349,279.5652161,
0.8125,281.4854431,
0.8141667247,279.5179443,
0.8158333302,279.2946777,
0.8174999952,281.1542358,
0.8191667199,281.2156982,
0.8208333254,278.6545715,
0.8225000501,280.2061768,
0.8241666555,278.4047852,
0.8258333206,280.8667908,
0.8275000453,279.6457214,
0.8291666508,283.1112976,
0.8308333755,282.3890991,
0.8325000405,282.1104736,
0.834166646,278.9269104,
0.8358333707,282.8591614,
0.8374999762,278.4386902,
0.8391667008,280.5085449,
0.8408333659,276.8667603,
0.8424999714,278.8169861,
0.8441666961,280.0391541,
0.8458333611,276.0816345,
0.8475000262,278.6012878,
0.8491666913,279.456665,
0.8508332968,279.9833984,
0.8525000215,281.1410828,
0.8541666865,281.1186218,
0.8558333516,278.942627,
0.8575000167,279.2455139,
0.8591666818,280.2464294,
0.8608333468,280.7538147,
0.8625000119,278.3251343,
0.864166677,277.8027039,
0.8658333421,278.2449951,
0.8675000072,279.5431519,
0.8691666722,279.7724915,
0.8708333373,278.56604,
0.872500062,279.1074219,
0.8741666675,280.2202148,
0.8758333325,278.3591003,
0.8774999976,280.4952393,
0.8791666627,276.1375427,
0.8808333874,279.7774963,
0.8824999928,279.427948,
0.8841666579,278.9271851,
0.8858333826,280.2849731,
0.8874999881,277.7818909,
0.8891667128,278.6703796,
0.8908333182,276.9346924,
0.8924999833,276.9505615,
0.894166708,279.8895264,
0.8958333135,279.457489,
0.8975000381,281.2723083,
0.8991667032,285.4965515,
0.9008333087,282.4500732,
0.9025000334,279.4552917,
0.9041666389,279.7351685,
0.9058333635,280.9246216,
0.9075000286,281.7261963,
0.9091666341,279.0099182,
0.9108333588,279.6469727,
0.9125000238,286.0084839,
0.9141666889,279.7335815,
0.915833354,281.0158386,
0.9174999595,278.9576416,
0.9191666842,275.6538086,
0.9208333492,278.8961792,
0.9225000143,278.2527161,
0.9241666794,282.2348022,
0.9258333445,280.3296814,
0.9275000095,276.2985229,
0.9291666746,279.5146484,
0.9308333993,277.0420532,
0.9325000048,277.4006958,
0.9341666698,277.7921448,
0.9358333349,278.9298096,
0.9375,282.5856323,
0.9391667247,281.65979,
0.9408333302,279.1147766,
0.9424999952,276.740387,
0.9441667199,278.0559998,
0.9458333254,279.159668,
0.9475000501,279.7408447,
0.9491666555,278.9293518,
0.9508333206,279.5681458,
0.9525000453,279.1820374,
0.9541666508,277.4710693,
0.9558333755,279.085083,
0.9575000405,277.0944519,
0.959166646,276.853241,
0.9608333707,279.799408,
0.9624999762,282.7286987,
0.9641667008,279.3082886,
0.9658333659,277.1507568,
0.9674999714,284.5830383,
0.9691666961,276.905365,
0.9708333611,280.9136963,
0.9725000262,277.4253235,
0.9741666913,280.4816589,
0.9758332968,279.3527527,
0.9775000215,278.7990417,
0.9791666865,278.5695496,
0.9808333516,275.4898071,
0.9825000167,279.3622742,
0.9841666818,281.3655396,
0.9858333468,283.4533997,
0.9875000119,279.8096313,
0.989166677,280.3950195,
0.9908333421,276.2692871,
0.9925000072,277.9879761,
0.9941666722,279.3392944,
0.9958333373,281.9714355,
0.997500062,278.9847107,
0.9991666675,278.1669922,
1.000833273,279.6901245,
1.002500057,278.1983948,
1.004166722,277.173584,
1.005833387,280.7020874,
1.007500052,277.9883728,
1.009166598,278.1681824,
1.010833383,280.1219482,
1.012500048,279.5036011,
1.014166713,279.3411255,
1.015833378,276.6881104,
1.017500043,280.4346008,
1.019166708,277.3598022,
1.020833373,279.2785645,
1.022500038,281.1029663,
1.024166703,279.1321106,
1.025833368,280.1924744,
1.027500033,278.0207825,
1.029166698,280.3715515,
1.030833364,279.6872559,
1.032500029,279.950592,
1.034166694,278.0638123,
1.035833359,279.236084,
1.037500024,278.8740845,
1.039166689,282.1093445,
1.040833354,279.9842224,
1.042500019,279.0835876,
1.044166684,277.803894,
1.045833349,278.9425049,
1.047500014,281.3285828,
1.049166679,277.3294678,
1.050833344,278.4116821,
1.05250001,281.5096741,
1.054166675,277.1376953,
1.05583334,276.2294922,
1.057500005,279.5625,
1.05916667,279.5325928,
1.060833335,277.480011,
1.0625,279.1996155,
1.064166665,276.1361389,
1.06583333,279.197998,
1.067499995,277.7698364,
1.06916666,279.7301941,
1.070833325,278.7881165,
1.07249999,277.431366,
1.074166775,276.4518433,
1.07583344,276.4128723,
1.077499986,276.4129639,
1.079166651,277.048645,
1.080833316,276.3210754,
1.0825001,280.6525574,
1.084166765,280.608429,
1.085833311,276.6883545,
1.087499976,279.1919556,
1.089166641,276.6512451,
1.090833426,276.9700928,
1.092500091,276.7245178,
1.094166636,280.5525513,
1.095833302,280.6876221,
1.097499967,277.2611084,
1.099166751,281.3426514,
1.100833416,278.8135376,
1.102500081,276.8912354,
1.104166627,278.2800903,
1.105833292,278.4547729,
1.107500076,278.9450378,
1.109166741,278.6566772,
1.110833406,275.0319824,
1.112499952,277.5505676,
1.114166617,277.9512024,
1.115833402,278.0294495,
1.117500067,278.7701111,
1.119166732,277.2330933,
1.120833278,277.6194763,
1.122499943,276.1452637,
1.124166727,276.8732605,
1.125833392,280.0264893,
1.127500057,278.8554993,
1.129166722,277.6921997,
1.130833268,277.224762,
1.132500052,278.9510803,
1.134166718,279.1810913,
1.135833383,278.4394531,
1.137500048,277.8416748,
1.139166594,277.3398438,
1.140833378,278.6966553,
1.142500043,279.0845642,
1.144166708,278.5395508,
1.145833373,278.6337585,
1.147499919,278.5903931,
1.149166703,280.5639038,
1.150833368,276.9962463,
1.152500033,279.0743408,
1.154166698,278.3303833,
1.155833364,277.1066895,
1.157500029,277.4051208,
1.159166694,276.7997742,
1.160833359,277.7810974,
1.162500024,277.3010254,
1.164166689,276.121521,
1.165833354,277.9607239,
1.167500019,278.3557739,
1.169166684,278.2691956,
1.170833349,278.8136597,
1.172500014,277.1210938,
1.174166799,277.5289001,
1.175833344,277.1478882,
1.17750001,279.9407959,
1.179166675,276.0610657,
1.18083334,278.5236816,
1.182500124,278.352478,
1.18416667,276.0365601,
1.185833335,279.9721375,
1.1875,276.1930542,
1.189166665,278.2442932,
1.190833449,278.026123,
1.192499995,277.5799866,
1.19416666,275.4084473,
1.195833325,276.3388672,
1.19749999,277.6447144,
1.199166775,278.5174561,
1.20083344,277.0543823,
1.202499986,276.9464722,
1.204166651,277.1274719,
1.205833316,277.3916931,
1.2075001,278.0767212,
1.209166765,279.1285706,
1.210833311,278.3211365,
1.212499976,278.1195679,
1.214166641,276.9583435,
1.215833426,281.5013733,
1.217500091,279.736084,
1.219166636,276.0889282,
1.220833302,276.1410217,
1.222499967,277.5714111,
1.224166751,277.2298889,
1.225833416,277.281189,
1.227500081,279.5946655,
1.229166627,278.1763611,
1.230833292,277.7304993,
1.232500076,279.3161926,
1.234166741,277.009552,
1.235833406,277.8085632,
1.237499952,278.693634,
1.239166617,276.6019897,
1.240833402,276.8297119,
1.242500067,276.7262268,
1.244166732,275.9575806,
1.245833278,281.0478516,
1.247499943,276.4977112,
1.249166727,276.7311401,
1.250833392,277.5516357,
1.252500057,278.615509,
1.254166722,281.3699646,
1.255833268,279.0725098,
1.257500052,279.8683167,
1.259166718,277.9921265,
1.260833383,279.9213562,
1.262500048,279.0390625,
1.264166594,277.7315674,
1.265833378,278.8153381,
1.267500043,278.9461365,
1.269166708,278.4984741,
1.270833373,277.821991,
1.272499919,277.1010132,
1.274166703,277.9492493,
1.275833368,275.9062195,
1.277500033,277.8717041,
1.279166698,281.0493469,
1.280833364,276.4867554,
1.282500029,279.2547913,
1.284166694,280.9302368,
1.285833359,277.9116211,
1.287500024,278.0661011,
1.289166689,279.5022888,
1.290833354,275.0631714,
1.292500019,279.1760559,
1.294166684,279.1478577,
1.295833349,276.5860901,
1.297500014,281.0548401,
1.299166799,280.7046509,
1.300833344,276.8867188,
1.30250001,280.2331238,
1.304166675,278.9408264,
1.30583334,278.4690247,
1.307500124,279.3970337,
1.30916667,277.5098572,
1.310833335,277.8497009,
1.3125,277.1056824,
1.314166665,278.2782898,
1.315833449,277.9845581,
1.317499995,278.024231,
1.31916666,282.3530273,
1.320833325,277.5802917,
1.32249999,277.4151306,
1.324166775,281.2312317,
1.32583344,276.5864258,
1.327499986,279.3591003,
1.329166651,277.3510132,
1.330833316,275.338623,
1.3325001,280.6031189,
1.334166765,277.3130798,
1.335833311,279.2130127,
1.337499976,276.5402222,
1.339166641,281.3206482,
1.340833426,276.4096069,
1.342500091,277.6578064,
1.344166636,280.2676086,
1.345833302,278.3748474,
1.347499967,275.8182678,
1.349166751,276.928009,
1.350833416,274.2528687,
1.352500081,276.2966614,
1.354166627,278.7040405,
1.355833292,279.6152649,
1.357500076,275.5296326,
1.359166741,278.2457275,
1.360833406,277.7960205,
1.362499952,276.5462036,
1.364166617,276.8921509,
1.365833402,278.7944641,
1.367500067,280.2167053,
1.369166732,276.613678,
1.370833278,277.227417,
1.372499943,277.0716248,
1.374166727,278.8091431,
1.375833392,276.8856506,
1.377500057,276.6053772,
1.379166722,278.3315125,
1.380833268,276.5234375,
1.382500052,277.3704224,
1.384166718,275.5101929,
1.385833383,278.7905579,
1.387500048,276.8632202,
1.389166594,279.3644714,
1.390833378,277.868042,
1.392500043,278.6839294,
1.394166708,279.7514648,
1.395833373,280.736969,
1.397499919,280.7951355,
1.399166703,277.0065918,
1.400833368,278.7138977,
1.402500033,278.3424072,
1.404166698,276.2244568,
1.405833364,279.2721863,
1.407500029,276.1786499,
1.409166694,277.6676941,
1.410833359,278.2906799,
1.412500024,276.6729431,
1.414166689,277.8162842,
1.415833354,279.1312256,
1.417500019,277.7828369,
1.419166684,277.3173523,
1.420833349,277.8580322,
1.422500014,275.0845337,
1.424166799,277.9343262,
1.425833344,279.963562,
1.42750001,277.3566589,
1.429166675,279.9047852,
1.43083334,280.3316345,
1.432500124,276.5690002,
1.43416667,275.0561829,
1.435833335,276.3026428,
1.4375,277.7662048,
1.439166665,278.2969971,
1.440833449,278.2957153,
1.442499995,278.8138733,
1.44416666,278.3948059,
1.445833325,275.5506287,
1.44749999,278.6815491,
1.449166775,276.6254272,
1.45083344,276.9020996,
1.452499986,276.5488281,
1.454166651,277.5962524,
1.455833316,278.5913391,
1.4575001,275.2567444,
1.459166765,278.3635864,
1.460833311,277.9738159,
1.462499976,278.8095703,
1.464166641,279.6123962,
1.465833426,278.5153503,
1.467500091,278.3455505,
1.469166636,276.3060303,
1.470833302,279.1665344,
1.472499967,276.4985352,
1.474166751,280.7120972,
1.475833416,277.6213074,
1.477500081,278.5840759,
1.479166627,281.0944824,
1.480833292,278.9539185,
1.482500076,279.507019,
1.484166741,276.4382324,
1.485833406,278.4464417,
1.487499952,278.4848633,
1.489166617,283.5707397,
1.490833402,280.4926147,
1.492500067,277.5588684,
1.494166732,280.3874207,
1.495833278,276.2934875,
1.497499943,279.738739,
1.499166727,278.7377014,
1.500833392,276.4962158,
1.502500057,279.0315552,
1.504166722,274.4375916,
1.505833268,279.0373535,
1.507500052,279.486908,
1.509166718,277.9628601,
1.510833383,278.2149658,
1.512500048,274.9917603,
1.514166594,277.549408,
1.515833378,277.3231201,
1.517500043,278.5541992,
1.519166708,255.0452423,
1.520833373,248.6501007,
1.522499919,238.1137543,
1.524166703,228.4833832,
1.525833368,226.9462585,
1.527500033,219.6603394,
1.529166698,267.2470093,
1.530833364,262.1898499,
1.532500029,264.5494385,
1.534166694,262.9049377,
1.535833359,263.9064331,
1.537500024,263.1369629,
1.539166689,269.9361267,
1.540833354,267.540802,
1.542500019,268.1461792,
1.544166684,265.6367798,
1.545833349,254.916214,
1.547500014,225.3796387,
1.549166799,240.7495575,
1.550833344,214.4061584,
1.55250001,268.3293457,
1.554166675,225.6910248,
1.55583334,248.5717773,
1.557500124,247.916275,
1.55916667,229.5878448,
1.560833335,249.103363,
1.5625,219.2030334,
1.564166665,252.0060883,
1.565833449,248.7701569,
1.567499995,227.3237,
1.56916666,259.5862427,
1.570833325,214.7179108,
1.57249999,261.6074829,
1.574166775,227.071228,
1.57583344,239.7986603,
1.577499986,249.6740723,
1.579166651,194.8345795,
1.580833316,264.6963196,
1.5825001,263.5349121,
1.584166765,261.1560669,
1.585833311,262.9161072,
1.587499976,261.2057495,
1.589166641,260.2898865,
1.590833426,260.0565186,
1.592500091,264.9332581,
1.594166636,261.0682068,
1.595833302,261.1512756,
1.597499967,262.633667,
1.599166751,259.6632996,
1.600833416,259.4872437,
1.602500081,260.0142212,
1.604166627,257.0869446,
1.605833292,256.684967,
1.607500076,257.0749817,
1.609166741,258.4837646,
1.610833406,259.5607605,
1.612499952,257.9967346,
1.614166617,256.6832275,
1.615833402,255.6089172,
1.617500067,257.6062927,
1.619166732,257.1755676,
1.620833278,257.6613159,
1.622499943,255.72789,
1.624166727,258.1816711,
1.625833392,253.6863708,
1.627500057,255.6789856,
1.629166722,256.0076294,
1.630833268,253.9080963,
1.632500052,252.726532,
1.634166718,254.381897,
1.635833383,256.317627,
1.637500048,252.6784515,
1.639166594,254.1937866,
1.640833378,256.1243591,
1.642500043,252.2528992,
1.644166708,254.3357849,
1.645833373,252.2061462,
1.647499919,253.3441162,
1.649166703,251.963623,
1.650833368,250.9593353,
1.652500033,254.3542633,
1.654166698,252.1531219,
1.655833364,254.0956421,
1.657500029,250.934845,
1.659166694,252.7552185,
1.660833359,252.5901489,
1.662500024,250.384964,
1.664166689,252.1963196,
1.665833354,249.7854309,
1.667500019,252.5322113,
1.669166684,251.0887909,
1.670833349,250.7922363,
1.672500014,249.4678192,
1.674166799,252.2444763,
1.675833344,249.1323853,
1.67750001,249.5642395,
1.679166675,247.1352234,
1.68083334,248.9860687,
1.682500124,247.1022644,
1.68416667,248.9693756,
1.685833335,249.1970825,
1.6875,249.0355682,
1.689166665,247.4319,
1.690833449,246.4222107,
1.692499995,250.0751953,
1.69416666,247.8783875,
1.695833325,247.8614807,
1.69749999,248.3106537,
1.699166775,247.0549927,
1.70083344,245.8362122,
1.702499986,245.2884521,
1.704166651,243.8922119,
1.705833316,246.9953003,
1.7075001,248.4796753,
1.709166765,244.9079895,
1.710833311,248.3665466,
1.712499976,245.2381897,
1.714166641,246.5969543,
1.715833426,246.808548,
1.717500091,245.1586609,
1.719166636,244.9522095,
1.720833302,247.6643219,
1.722499967,245.8796997,
1.724166751,247.1952057,
1.725833416,243.8739014,
1.727500081,244.4975128,
1.729166627,242.5869751,
1.730833292,244.5387726,
1.732500076,245.7925262,
1.734166741,245.2692871,
1.735833406,243.3136597,
1.737499952,243.1957092,
1.739166617,241.6329651,
1.740833402,243.2101593,
1.742500067,247.3731995,
1.744166732,246.9766846,
1.745833278,243.254364,
1.747499943,242.0670624,
1.749166727,242.753418,
1.750833392,242.7150574,
1.752500057,241.6181946,
1.754166722,242.5842743,
1.755833268,239.4000549,
1.757500052,242.7006836,
1.759166718,241.2360077,
1.760833383,245.7836609,
1.762500048,243.854248,
1.764166594,242.1109924,
1.765833378,242.998764,
1.767500043,245.8952484,
1.769166708,242.6099701,
1.770833373,241.7518463,
1.772499919,241.4388733,
1.774166703,242.2348785,
1.775833368,241.2975311,
1.777500033,242.1552734,
1.779166698,241.9611664,
1.780833364,241.9939423,
1.782500029,241.5694275,
1.784166694,244.1557465,
1.785833359,242.5775604,
1.787500024,245.1604462,
1.789166689,240.1071014,
1.790833354,240.4946442,
1.792500019,242.3817291,
1.794166684,240.8711853,
1.795833349,241.5070496,
1.797500014,238.7714386,
1.799166799,239.9775543,
1.800833344,239.0926514,
1.80250001,238.8895416,
1.804166675,238.3507538,
1.80583334,241.4121857,
1.807500124,240.4119263,
1.80916667,240.417038,
1.810833335,237.541687,
1.8125,240.2282562,
1.814166665,240.7471161,
1.815833449,238.3677216,
1.817499995,240.0315704,
1.81916666,238.2040253,
1.820833325,239.9196777,
1.82249999,237.3475647,
1.824166775,240.25354,
1.82583344,239.3335876,
1.827499986,236.8368073,
1.829166651,240.8323364,
1.830833316,240.3801575,
1.8325001,239.7744751,
1.834166765,238.2376404,
1.835833311,238.8554688,
1.837499976,238.3470764,
1.839166641,238.3054504,
1.840833426,238.3126678,
1.842500091,237.2665863,
1.844166636,239.0967865,
1.845833302,238.8015289,
1.847499967,237.0961151,
1.849166751,239.251297,
1.850833416,240.4118958,
1.852500081,236.9284973,
1.854166627,237.1600342,
1.855833292,237.3100586,
1.857500076,238.0546265,
1.859166741,238.5853424,
1.860833406,238.72995,
1.862499952,237.3657837,
1.864166617,239.9924774,
1.865833402,238.4380646,
1.867500067,236.8888397,
1.869166732,237.8536835,
1.870833278,237.4330444,
1.872499943,237.3959503,
1.874166727,238.1727905,
1.875833392,236.6205902,
1.877500057,237.5237732,
1.879166722,238.0129242,
1.880833268,236.3286285,
1.882500052,235.0898132,
1.884166718,239.3096161,
1.885833383,235.4420929,
1.887500048,236.1173553,
1.889166594,238.3225861,
1.890833378,236.0411072,
1.892500043,233.1290588,
1.894166708,236.1304779,
1.895833373,235.9639435,
1.897499919,236.3837585,
1.899166703,235.9949493,
1.900833368,234.9266968,
1.902500033,235.0369263,
1.904166698,233.9780426,
1.905833364,234.1187134,
1.907500029,236.3859711,
1.909166694,235.3876648,
1.910833359,236.0231628,
1.912500024,233.6861115,
1.914166689,235.5457306,
1.915833354,233.8304138,
1.917500019,233.7196655,
1.919166684,233.4555359,
1.920833349,234.4453583,
1.922500014,235.5002899,
1.924166799,235.2636414,
1.925833344,234.47258,
1.92750001,234.5459137,
1.929166675,234.3750916,
1.93083334,234.672287,
1.932500124,234.7260742,
1.93416667,235.5223541,
1.935833335,235.1363525,
1.9375,232.6242981,
1.939166665,235.5920868,
1.940833449,233.7803345,
1.942499995,234.021759,
1.94416666,232.7177429,
1.945833325,235.766571,
1.94749999,234.118515,
1.949166775,233.2008209,
1.95083344,234.255188,
1.952499986,232.6394958,
1.954166651,234.2009735,
1.955833316,233.6558228,
1.9575001,232.3384094,
1.959166765,233.1690979,
1.960833311,235.4936371,
1.962499976,237.4984894,
1.964166641,233.2892456,
1.965833426,232.8428802,
1.967500091,233.8833923,
1.969166636,236.3528595,
1.970833302,231.8708649,
1.972499967,232.9142303,
1.974166751,230.3633728,
1.975833416,231.0060272,
1.977500081,233.5729218,
1.979166627,231.5487061,
1.980833292,235.4128418,
1.982500076,234.8414154,
1.984166741,233.5771637,
1.985833406,233.2884827,
1.987499952,232.4470215,
1.989166617,234.0962219,
1.990833402,233.4558258,
1.992500067,229.9407654,
1.994166732,234.9054413,
1.995833278,232.9434662,
1.997499943,232.9391785,
1.999166727,232.4681091,
2.000833273,232.5042572,
2.002500057,233.0027313,
2.004166603,233.2950134,
2.005833387,232.0975342,
2.007500172,230.3201599,
2.009166718,231.8203735,
2.010833263,231.6449585,
2.012500048,232.5864258,
2.014166594,233.5922394,
2.015833378,231.5500793,
2.017500162,231.8186951,
2.019166708,232.8258667,
2.020833254,232.424408,
2.022500038,231.1486053,
2.024166822,231.1370392,
2.025833368,232.2085724,
2.027499914,233.2750702,
2.029166698,231.3144379,
2.030833244,230.6349945,
2.032500029,230.9615784,
2.034166813,231.636673,
2.035833359,231.6833954,
2.037499905,230.3917236,
2.039166689,231.4075775,
2.040833473,233.6344147,
2.042500019,230.8572083,
2.044166803,232.756897,
2.045833349,230.9758759,
2.047499895,231.6745605,
2.049166679,231.3639679,
2.050833464,230.0324249,
2.05250001,233.4309845,
2.054166555,229.6990051,
2.05583334,230.9364014,
2.057500124,229.5098572,
2.05916667,230.9943237,
2.060833454,229.3123932,
2.0625,229.7701416,
2.064166546,230.3009644,
2.06583333,230.3165588,
2.067500114,232.660614,
2.06916666,231.9532013,
2.070833445,231.0548706,
2.07249999,232.9472198,
2.074166775,232.5913391,
2.075833321,230.5256805,
2.077500105,230.8479004,
2.079166651,231.3870239,
2.080833197,229.5851288,
2.082499981,229.746521,
2.084166765,227.7924347,
2.085833311,230.154068,
2.087500095,230.590744,
2.089166641,230.0753937,
2.090833426,228.5729523,
2.092499971,229.9132385,
2.094166756,229.8256683,
2.095833302,230.0473785,
2.097500086,229.6581573,
2.099166632,230.2670593,
2.100833416,230.1647339,
2.102499962,226.9509583,
2.104166746,230.2780609,
2.105833292,230.1910553,
2.107500076,228.8431244,
2.109166622,230.055481,
2.110833406,230.8873901,
2.112499952,231.1838074,
2.114166737,229.5658569,
2.115833521,228.5399933,
2.117500067,228.2256165,
2.119166613,228.517807,
2.120833397,227.7832031,
2.122499943,230.5043335,
2.124166727,230.4766235,
2.125833273,230.5738373,
2.127500057,230.3897552,
2.129166603,228.3159027,
2.130833387,230.2007751,
2.132500172,227.7962952,
2.134166718,228.1756897,
2.135833502,226.9328156,
2.137500048,228.1682739,
2.139166832,228.1185608,
2.140833378,227.3934479,
2.142500162,229.0176544,
2.144166708,227.8792114,
2.145833254,228.1459198,
2.147500038,226.9665985,
2.149166584,228.7262878,
2.150833368,228.6027679,
2.152500153,229.4146118,
2.154166698,227.7219391,
2.155833483,229.2092285,
2.157500029,228.7046967,
2.159166813,227.1580658,
2.160833597,226.9134521,
2.162499905,228.2030182,
2.164166689,228.1011353,
2.165833235,227.9420013,
2.167500019,228.5384979,
2.169166803,227.0257874,
2.170833349,228.3379364,
2.172500134,227.254364,
2.174166679,228.1936493,
2.175833464,227.1134338,
2.177500248,227.5820007,
2.179166555,226.9475403,
2.18083334,228.0265045,
2.182499886,228.8435364,
2.18416667,226.7107086,
2.185833454,227.6342468,
2.1875,226.5874634,
2.189166784,226.9382629,
2.19083333,226.4800873,
2.192500114,227.2649384,
2.194166899,230.2147522,
2.195833445,228.5553131,
2.19749999,229.4988403,
2.199166536,228.0022736,
2.200833321,227.4159546,
2.202500105,227.330307,
2.204166651,227.2463989,
2.205833435,225.5894775,
2.207499981,228.4009399,
2.209166765,228.4428406,
2.210833549,226.3804321,
2.212500095,225.9646149,
2.21416688,227.0198669,
2.215833187,226.0229187,
2.217499971,227.346283,
2.219166756,227.3425598,
2.220833302,227.4598694,
2.222500086,227.6719818,
2.224166632,225.9334106,
2.225833416,228.618927,
2.2275002,227.2367401,
2.229166746,227.0200806,
2.23083353,228.435257,
2.232499838,226.1215515,
2.234166622,226.0760956,
2.235833406,229.151001,
2.237499952,225.2903595,
2.239166737,227.1487732,
2.240833282,228.2850494,
2.242500067,226.3634491,
2.244166851,227.8465576,
2.245833397,227.8219757,
2.247500181,225.5964203,
2.249166727,227.3722076,
2.250833273,227.0219421,
2.252500057,227.498291,
2.254166603,227.5491791,
2.255833387,226.7328033,
2.257499933,229.1486816,
2.259166718,226.0246735,
2.260833502,228.4923859,
2.262500048,228.4035492,
2.264166832,225.7206421,
2.265833378,228.1160278,
2.267500162,225.65802,
2.269166708,226.6842804,
2.270833254,228.1386719,
2.272500038,225.3299255,
2.274166584,225.5023041,
2.275833368,226.0323792,
2.277500153,226.8747864,
2.279166698,225.1326447,
2.280833483,226.687027,
2.282500029,229.420929,
2.284166813,224.6869202,
2.285833597,226.6395111,
2.287499905,225.6086731,
2.289166689,225.4089203,
2.290833235,225.5775299,
2.292500019,226.3063507,
2.294166803,225.9378662,
2.295833349,225.2084961,
2.297500134,227.8072968,
2.299166679,224.3648987,
2.300833464,225.0791931,
2.302500248,226.7528381,
2.304166555,227.9160919,
2.30583334,225.6438446,
2.307499886,225.889328,
2.30916667,226.1282806,
2.310833454,226.4431152,
2.3125,226.1384277,
2.314166784,225.779953,
2.31583333,224.388504,
2.317500114,226.7871094,
2.319166899,224.979538,
2.320833445,226.5966492,
2.32249999,224.7449799,
2.324166536,228.5365753,
2.325833321,224.7669067,
2.327500105,224.6955261,
2.329166651,225.391571,
2.330833435,227.2620544,
2.332499981,224.013092,
2.334166765,225.6054382,
2.335833549,223.4232025,
2.337500095,224.2014618,
2.33916688,225.8564606,
2.340833187,225.4937592,
2.342499971,224.4939575,
2.344166756,224.892868,
2.345833302,224.6665649,
2.347500086,224.5226135,
2.349166632,225.2231445,
2.350833416,224.0764923,
2.3525002,225.4330139,
2.354166746,223.9906158,
2.35583353,223.6256866,
2.357499838,223.8347778,
2.359166622,224.7246094,
2.360833406,225.8887482,
2.362499952,224.8899536,
2.364166737,225.9027252,
2.365833282,223.6583557,
2.367500067,226.0101471,
2.369166851,224.9282684,
2.370833397,224.0486908,
2.372500181,225.4905396,
2.374166727,223.5050964,
2.375833273,225.4867706,
2.377500057,224.2237549,
2.379166603,224.7561188,
2.380833387,225.2142639,
2.382499933,224.5963135,
2.384166718,223.7217255,
2.385833502,223.5147705,
2.387500048,224.9813843,
2.389166832,223.9410706,
2.390833378,223.1885223,
2.392500162,224.219162,
2.394166708,223.2233734,
2.395833254,222.3399353,
2.397500038,222.5853119,
2.399166584,223.6223145,
2.400833368,224.363327,
2.402500153,225.9984894,
2.404166698,225.4730377,
2.405833483,224.7107391,
2.407500029,223.8858948,
2.409166813,224.8104553,
2.410833597,226.170929,
2.412499905,225.5712433,
2.414166689,223.400116,
2.415833235,225.1586761,
2.417500019,224.9357147,
2.419166803,225.0018311,
2.420833349,223.9063568,
2.422500134,223.02742,
2.424166679,224.7649689,
2.425833464,224.8593445,
2.427500248,224.5068817,
2.429166555,223.2648926,
2.43083334,227.3654938,
2.432499886,225.3532257,
2.43416667,224.8987122,
2.435833454,223.2116852,
2.4375,223.0652161,
2.439166784,224.1434784,
2.44083333,224.4658813,
2.442500114,224.5899048,
2.444166899,224.1962585,
2.445833445,223.0543671,
2.44749999,225.4088745,
2.449166536,224.4342346,
2.450833321,223.1248932,
2.452500105,223.7743988,
2.454166651,224.7830658,
2.455833435,223.6485138,
2.457499981,224.2151947,
2.459166765,224.0149689,
2.460833549,224.3767853,
2.462500095,226.3123474,
2.46416688,222.5089417,
2.465833187,223.0989075,
2.467499971,222.3315125,
2.469166756,224.0285797,
2.470833302,223.1098785,
2.472500086,223.9586945,
2.474166632,223.4837646,
2.475833416,221.8253784,
2.4775002,224.8535461,
2.479166746,222.125412,
2.48083353,224.3297119,
2.482499838,222.8506012,
2.484166622,223.784729,
2.485833406,224.4010773,
2.487499952,224.98909,
2.489166737,221.5910034,
2.490833282,225.4870453,
2.492500067,225.7157745,
2.494166851,224.299118,
2.495833397,223.8460236,
2.497500181,224.3406067,
2.499166727,222.7589874,
2.500833273,221.9701843,
2.502500057,222.9496613,
2.504166603,225.4165039,
2.505833387,224.1496582,
2.507499933,224.3361511,
2.509166718,223.0775757,
2.510833502,224.6903839,
2.512500048,223.708847,
2.514166832,223.8632965,
2.515833378,221.8574066,
2.517500162,223.6252136,
2.519166708,223.3842163,
2.520833254,222.5361023,
2.522500038,225.2293396,
2.524166584,224.6756744,
2.525833368,223.2043152,
2.527500153,224.0017548,
2.529166698,221.1248627,
2.530833483,223.6361847,
2.532500029,223.3445587,
2.534166813,222.9190369,
2.535833597,222.76651,
2.537499905,223.6023712,
2.539166689,224.2675018,
2.540833235,222.280838,
2.542500019,222.4087524,
2.544166803,223.7029877,
2.545833349,225.1841278,
2.547500134,225.2695618,
2.549166679,223.6253662,
2.550833464,221.7800903,
2.552500248,221.6543427,
2.554166555,222.1669312,
2.55583334,223.6776428,
2.557499886,221.7359009,
2.55916667,223.7703857,
2.560833454,222.9285889,
2.5625,223.5179901,
2.564166784,223.0898743,
2.56583333,223.7227325,
2.567500114,223.4918213,
2.569166899,221.8795624,
2.570833445,223.5879059,
2.57249999,222.2397003,
2.574166536,224.669632,
2.575833321,223.5225067,
2.577500105,221.9306488,
2.579166651,222.2546997,
2.580833435,224.1598358,
2.582499981,222.3445282,
2.584166765,222.0226898,
2.585833549,223.5206146,
2.587500095,222.4813232,
2.58916688,222.3291321,
2.590833187,221.5090637,
2.592499971,221.999054,
2.594166756,223.0874939,
2.595833302,222.964325,
2.597500086,224.6118469,
2.599166632,223.3812561,
2.600833416,222.2468109,
2.6025002,222.906601,
2.604166746,222.0999298,
2.60583353,223.1481171,
2.607499838,222.093689,
2.609166622,223.9646759,
2.610833406,224.4407349,
2.612499952,222.7964172,
2.614166737,224.2485199,
2.615833282,221.7771606,
2.617500067,220.2304535,
2.619166851,223.5351715,
2.620833397,222.2467651,
2.622500181,225.9672394,
2.624166727,222.2566681,
2.625833273,223.1577606,
2.627500057,221.5170135,
2.629166603,223.8530121,
2.630833387,221.1149902,
2.632499933,222.9363708,
2.634166718,223.5687408,
2.635833502,223.1798248,
2.637500048,225.0405579,
2.639166832,219.9154358,
2.640833378,221.9413757,
2.642500162,222.0206146,
2.644166708,220.7916412,
2.645833254,222.0011749,
2.647500038,221.7337799,
2.649166584,221.9462738,
2.650833368,221.0563049,
2.652500153,221.4904785,
2.654166698,224.528656,
2.655833483,220.0096588,
2.657500029,222.3365784,
2.659166813,221.4805756,
2.660833597,222.7165527,
2.662499905,221.981308,
2.664166689,221.0184021,
2.665833235,222.7200317,
2.667500019,220.7050476,
2.669166803,222.0910645,
2.670833349,220.2618866,
2.672500134,220.7670135,
2.674166679,219.9939117,
2.675833464,219.90979,
2.677500248,220.1770782,
2.679166555,220.5071564,
2.68083334,220.5117798,
2.682499886,221.1427612,
2.68416667,220.3816376,
2.685833454,220.0762787,
2.6875,219.6468353,
2.689166784,218.9991913,
2.69083333,221.7279663,
2.692500114,221.9124908,
2.694166899,220.6630249,
2.695833445,221.6174774,
2.69749999,222.4181519,
2.699166536,222.479187,
2.700833321,220.2223358,
2.702500105,221.17836,
2.704166651,221.1402588,
2.705833435,220.910614,
2.707499981,219.5123444,
2.709166765,220.4358521,
2.710833549,222.5849915,
2.712500095,223.2446442,
2.71416688,220.1276398,
2.715833187,220.7107697,
2.717499971,221.7098694,
2.719166756,220.218811,
2.720833302,221.524353,
2.722500086,221.4433594,
2.724166632,220.3647919,
2.725833416,221.1588593,
2.7275002,221.9042664,
2.729166746,220.4927826,
2.73083353,220.7166901,
2.732499838,220.5704803,
2.734166622,221.0269318,
2.735833406,221.3233948,
2.737499952,220.7603149,
2.739166737,220.0918732,
2.740833282,219.3680573,
2.742500067,220.6716156,
2.744166851,219.7438202,
2.745833397,221.0469666,
2.747500181,219.6520844,
2.749166727,221.0774689,
2.750833273,219.5146027,
2.752500057,220.657196,
2.754166603,219.8948517,
2.755833387,220.974823,
2.757499933,220.6798401,
2.759166718,220.9958649,
2.760833502,218.9795685,
2.762500048,221.1137848,
2.764166832,221.4230804,
2.765833378,221.788269,
2.767500162,221.9670563,
2.769166708,220.056778,
2.770833254,220.8862152,
2.772500038,221.4897156,
2.774166584,220.6288452,
2.775833368,221.6677856,
2.777500153,222.3315277,
2.779166698,219.5571594,
2.780833483,220.7303925,
2.782500029,220.6339874,
2.784166813,219.275238,
2.785833597,220.5986938,
2.787499905,219.9013519,
2.789166689,220.0787506,
2.790833235,220.068161,
2.792500019,220.9626465,
2.794166803,219.7170715,
2.795833349,220.4418488,
2.797500134,219.3876343,
2.799166679,221.1496277,
2.800833464,221.2540436,
2.802500248,219.9951172,
2.804166555,220.4632568,
2.80583334,221.9645081,
2.807499886,218.8775787,
2.80916667,220.658493,
2.810833454,220.6411133,
2.8125,219.522995,
2.814166784,220.7498474,
2.81583333,220.1238251,
2.817500114,221.2304993,
2.819166899,221.0210114,
2.820833445,219.6744385,
2.82249999,220.8227844,
2.824166536,218.9063568,
2.825833321,221.3612213,
2.827500105,220.2542114,
2.829166651,221.8017578,
2.830833435,220.9360504,
2.832499981,220.5862579,
2.834166765,219.4278107,
2.835833549,221.7380829,
2.837500095,219.694458,
2.83916688,221.6790466,
2.840833187,220.7563019,
2.842499971,220.1589203,
2.844166756,219.5318909,
2.845833302,221.1848297,
2.847500086,222.0848846,
2.849166632,219.1418762,
2.850833416,221.6311798,
2.8525002,220.0048981,
2.854166746,219.5856934,
2.85583353,220.5545197,
2.857499838,221.2145538,
2.859166622,220.9718628,
2.860833406,221.0029297,
2.862499952,218.284729,
2.864166737,221.0953522,
2.865833282,220.1586609,
2.867500067,221.7749176,
2.869166851,220.7263794,
2.870833397,220.5433655,
2.872500181,219.3377838,
2.874166727,220.9234467,
2.875833273,220.9941101,
2.877500057,220.300766,
2.879166603,219.9829712,
2.880833387,220.0036011,
2.882499933,219.2656708,
2.884166718,220.0843048,
2.885833502,219.1114655,
2.887500048,220.1483459,
2.889166832,218.5154877,
2.890833378,218.360672,
2.892500162,218.6125946,
2.894166708,220.0492859,
2.895833254,219.0198822,
2.897500038,219.0944214,
2.899166584,220.9038239,
2.900833368,219.7254486,
2.902500153,219.37323,
2.904166698,219.7839355,
2.905833483,220.1643524,
2.907500029,219.7943726,
2.909166813,218.3281708,
2.910833597,218.6910553,
2.912499905,219.7626343,
2.914166689,218.7483215,
2.915833235,218.8041992,
2.917500019,220.8806305,
2.919166803,221.9042358,
2.920833349,221.3458099,
2.922500134,219.0970612,
2.924166679,219.7697296,
2.925833464,222.5163422,
2.927500248,217.629303,
2.929166555,218.736969,
2.93083334,218.4411621,
2.932499886,218.5348816,
2.93416667,217.1835785,
2.935833454,220.5380707,
2.9375,221.0097809,
2.939166784,218.2767792,
2.94083333,219.4645386,
2.942500114,219.4176483,
2.944166899,218.2921753,
2.945833445,218.4233704,
2.94749999,220.2328644,
2.949166536,220.2315521,
2.950833321,222.0100403,
2.952500105,218.8409882,
2.954166651,219.6837616,
2.955833435,219.7425079,
2.957499981,218.901123,
2.959166765,219.0661469,
2.960833549,218.9854431,
2.962500095,219.7325745,
2.96416688,221.0521393,
2.965833187,221.284317,
2.967499971,220.5936737,
2.969166756,219.0106049,
2.970833302,218.6231079,
2.972500086,219.9958496,
2.974166632,218.8829956,
2.975833416,218.3028107,
2.9775002,218.2641296,
2.979166746,218.8796082,
2.98083353,218.8656616,
2.982499838,219.7341003,
2.984166622,219.612381,
2.985833406,218.0629578,
2.987499952,219.6699524,
2.989166737,220.6798096,
2.990833282,218.518692,
2.992500067,218.0974274,
2.994166851,218.9547119,
2.995833397,219.258316,
2.997500181,219.4338226,
2.999166727,218.4307251,
3.000833273,219.3350067,
3.002500057,218.1247101,
3.004166603,219.7757874,
3.005833387,218.7124481,
3.007499933,219.5971832,
3.009166718,218.4160767,
3.010833502,218.0156555,
3.012500048,219.0308228,
3.014166832,217.3039398,
3.015833378,219.2652588,
3.017500162,219.0430908,
3.019166708,218.6031952,
3.020833254,218.8993225,
3.022500038,218.7024841,
3.024166584,219.2901459,
3.025833368,219.0393677,
3.027500153,219.0853882,
3.029166698,219.0587463,
3.030833483,218.7245941,
3.032500029,219.1856842,
3.034166813,221.0758667,
3.035833597,217.9085388,
3.037499905,217.5387878,
3.039166689,218.3803864,
3.040833235,218.9283447,
3.042500019,218.9095764,
3.044166803,217.7306213,
3.045833349,218.484375,
3.047500134,218.5036011,
3.049166679,218.9516449,
3.050833464,218.2999878,
3.052500248,219.5296021,
3.054166555,218.8318634,
3.05583334,220.1072845,
3.057499886,220.4728699,
3.05916667,218.350708,
3.060833454,217.0462646,
3.0625,219.2908783,
3.064166784,217.7298889,
3.06583333,217.2207184,
3.067500114,219.4105682,
3.069166899,219.8210144,
3.070833445,218.0580597,
3.07249999,218.4980621,
3.074166536,218.7893982,
3.075833321,219.34935,
3.077500105,218.9638214,
3.079166651,217.6909485,
3.080833435,219.1232605,
3.082499981,218.9366302,
3.084166765,218.4098663,
3.085833549,217.4886322,
3.087500095,218.3561096,
3.08916688,219.0386658,
3.090833187,218.7944641,
3.092499971,216.4193726,
3.094166756,219.0050049,
3.095833302,216.8218994,
3.097500086,219.0841522,
3.099166632,218.7697296,
3.100833416,217.5532532,
3.1025002,218.1002045,
3.104166746,218.56427,
3.10583353,217.6903839,
3.107499838,219.3791656,
3.109166622,218.7727966,
3.110833406,217.2745056,
3.112499952,218.0503082,
3.114166737,220.8071899,
3.115833282,217.4707336,
3.117500067,218.2851868,
3.119166851,218.3149567,
3.120833397,220.852417,
3.122500181,218.4557953,
3.124166727,217.9294891,
3.125833273,216.9412231,
3.127500057,219.4168701,
3.129166603,218.7247467,
3.130833387,220.3440094,
3.132499933,219.7136078,
3.134166718,218.1684875,
3.135833502,218.3433838,
3.137500048,218.1400757,
3.139166832,219.3919525,
3.140833378,217.7687836,
3.142500162,218.1978455,
3.144166708,219.140213,
3.145833254,219.1404114,
3.147500038,218.86763,
3.149166584,219.6579742,
3.150833368,218.7929077,
3.152500153,220.5311279,
3.154166698,217.232666,
3.155833483,218.3695984,
3.157500029,219.3809814,
3.159166813,216.4494171,
3.160833597,218.4038086,
3.162499905,218.152832,
3.164166689,218.2145081,
3.165833235,217.0186005,
3.167500019,219.4519196,
3.169166803,218.179306,
3.170833349,217.9725647,
3.172500134,216.6372681,
3.174166679,218.4319305,
3.175833464,219.51091,
3.177500248,218.6218109,
3.179166555,218.6591492,
3.18083334,218.5308685,
3.182499886,218.6581726,
3.18416667,217.5323486,
3.185833454,217.7546844,
3.1875,217.4151306,
3.189166784,220.1333466,
3.19083333,218.7682648,
3.192500114,217.8885956,
3.194166899,218.7730713,
3.195833445,219.9169617,
3.19749999,217.7017975,
3.199166536,217.4270935,
3.200833321,216.622757,
3.202500105,217.3064575,
3.204166651,216.6470337,
3.205833435,217.9376068,
3.207499981,217.1327057,
3.209166765,217.4503021,
3.210833549,219.6212769,
3.212500095,217.4096832,
3.21416688,217.4886932,
3.215833187,218.5319366,
3.217499971,219.5518799,
3.219166756,217.7016907,
3.220833302,217.7191162,
3.222500086,218.2855225,
3.224166632,217.5720062,
3.225833416,218.2436066,
3.2275002,217.2790833,
3.229166746,219.2277985,
3.23083353,218.8682861,
3.232499838,218.6530762,
3.234166622,218.7942047,
3.235833406,219.9957428,
3.237499952,219.4766541,
3.239166737,217.720047,
3.240833282,219.4840698,
3.242500067,218.3833008,
3.244166851,217.6054077,
3.245833397,217.9606781,
3.247500181,217.3194275,
3.249166727,217.4149017,
3.250833273,219.0612488,
3.252500057,218.1837769,
3.254166603,217.6074219,
3.255833387,217.3534393,
3.257499933,218.9506531,
3.259166718,218.70755,
3.260833502,218.4104156,
3.262500048,217.9467773,
3.264166832,216.6513977,
3.265833378,216.3135376,
3.267500162,217.8043213,
3.269166708,216.6436615,
3.270833254,218.5774689,
3.272500038,216.3960876,
3.274166584,218.5422821,
3.275833368,216.7322693,
3.277500153,216.7895203,
3.279166698,217.4258118,
3.280833483,217.2077026,
3.282500029,217.3310242,
3.284166813,219.1997375,
3.285833597,215.847641,
3.287499905,217.6608887,
3.289166689,218.1594849,
3.290833235,218.3926392,
3.292500019,218.8346405,
3.294166803,216.1650696,
3.295833349,216.1006012,
3.297500134,218.3227692,
3.299166679,218.4710236,
3.300833464,218.8157349,
3.302500248,220.4732361,
3.304166555,216.6299133,
3.30583334,216.7307892,
3.307499886,218.9311829,
3.30916667,218.455307,
3.310833454,217.0859833,
3.3125,218.2564697,
3.314166784,216.4657745,
3.31583333,216.7371826,
3.317500114,216.75737,
3.319166899,219.4949799,
3.320833445,218.6760559,
3.32249999,217.8214722,
3.324166536,217.0418396,
3.325833321,216.7784271,
3.327500105,216.2443542,
3.329166651,218.0766449,
3.330833435,216.8821106,
3.332499981,217.6585083,
3.334166765,217.3805847,
3.335833549,217.7255096,
3.337500095,217.4802399,
3.33916688,218.598175,
3.340833187,217.5245056,
3.342499971,219.5640564,
3.344166756,218.5457153,
3.345833302,219.1511841,
3.347500086,218.281601,
3.349166632,217.1044006,
3.350833416,217.6688843,
3.3525002,217.6381683,
3.354166746,217.1147308,
3.35583353,215.6641083,
3.357499838,218.6890106,
3.359166622,217.8683472,
3.360833406,218.6816406,
3.362499952,217.4927063,
3.364166737,218.3274384,
3.365833282,217.3052826,
3.367500067,218.1483307,
3.369166851,216.4187622,
3.370833397,218.3127594,
3.372500181,216.4780121,
3.374166727,217.2501373,
3.375833273,216.713562,
3.377500057,218.9156494,
3.379166603,216.7092285,
3.380833387,217.9249115,
3.382499933,216.2303314,
3.384166718,216.6475525,
3.385833502,217.3785095,
3.387500048,217.1528931,
3.389166832,215.7232361,
3.390833378,217.2140503,
3.392500162,217.1833954,
3.394166708,216.9406586,
3.395833254,217.2397308,
3.397500038,217.0293121,
3.399166584,215.5820923,
3.400833368,217.525589,
3.402500153,214.9859619,
3.404166698,218.2179565,
3.405833483,218.5182037,
3.407500029,216.2049866,
3.409166813,217.2761078,
3.410833597,215.8171997,
3.412499905,217.0549469,
3.414166689,216.3110046,
3.415833235,216.8757477,
3.417500019,216.9535522,
3.419166803,216.6394653,
3.420833349,216.2904663,
3.422500134,216.702774,
3.424166679,216.5921326,
3.425833464,216.2587128,
3.427500248,216.1229095,
3.429166555,217.6275787,
3.43083334,217.8759918,
3.432499886,216.4354095,
3.43416667,217.5305786,
3.435833454,218.1332245,
3.4375,217.9897614,
3.439166784,216.1368561,
3.44083333,218.1777802,
3.442500114,216.1498413,
3.444166899,216.3591461,
3.445833445,217.0782013,
3.44749999,216.46875,
3.449166536,218.4682922,
3.450833321,217.5232544,
3.452500105,217.5003662,
3.454166651,217.1521759,
3.455833435,216.5079803,
3.457499981,218.4816589,
3.459166765,218.7304993,
3.460833549,216.7712097,
3.462500095,216.1398163,
3.46416688,218.372406,
3.465833187,216.6082458,
3.467499971,216.7831421,
3.469166756,218.0099792,
3.470833302,217.8623047,
3.472500086,216.3855133,
3.474166632,216.3307953,
3.475833416,215.4678955,
3.4775002,217.0865784,
3.479166746,216.2011566,
3.48083353,217.074234,
3.482499838,218.0072784,
3.484166622,217.5568695,
3.485833406,216.0393066,
3.487499952,217.7360687,
3.489166737,218.5042114,
3.490833282,217.4189301,
3.492500067,216.6797485,
3.494166851,217.22995,
3.495833397,217.2721863,
3.497500181,218.9559021,
3.499166727,217.7230072,
3.500833273,216.820755,
3.502500057,216.31633,
3.504166603,218.6450653,
3.505833387,216.7006073,
3.507499933,217.4857941,
3.509166718,216.8329926,
3.510833502,217.1001434,
3.512500048,217.4695282,
3.514166832,216.2949219,
3.515833378,214.8987122,
3.517500162,217.1674652,
3.519166708,217.4238892,
3.520833254,215.9184265,
3.522500038,216.2872925,
3.524166584,218.6828461,
3.525833368,215.9854584,
3.527500153,217.3577728,
3.529166698,217.2015076,
3.530833483,216.1937256,
3.532500029,216.2756042,
3.534166813,215.8111267,
3.535833597,215.2587738,
3.537499905,215.6706085,
3.539166689,217.8155212,
3.540833235,216.7940826,
3.542500019,216.2931824,
3.544166803,214.5354004,
3.545833349,216.5639038,
3.547500134,216.1499786,
3.549166679,216.3106384,
3.550833464,217.1659546,
3.552500248,217.039032,
3.554166555,217.2636414,
3.55583334,218.0289764,
3.557499886,217.2572327,
3.55916667,215.3366394,
3.560833454,218.1044922,
3.5625,217.249588,
3.564166784,216.5420532,
3.56583333,216.4136963,
3.567500114,216.1682434,
3.569166899,215.9593506,
3.570833445,216.7607727,
3.57249999,218.5542908,
3.574166536,217.237442,
3.575833321,216.462326,
3.577500105,217.6617584,
3.579166651,217.5165405,
3.580833435,216.9945221,
3.582499981,215.464447,
3.584166765,217.1775208,
3.585833549,215.2242279,
3.587500095,214.6117706,
3.58916688,216.1138153,
3.590833187,215.2043304,
3.592499971,215.3716431,
3.594166756,217.176712,
3.595833302,216.5917969,
3.597500086,216.5032806,
3.599166632,217.6160736,
3.600833416,216.3506622,
3.6025002,215.83255,
3.604166746,217.4674225,
3.60583353,216.8933105,
3.607499838,215.6551208,
3.609166622,216.791748,
3.610833406,215.0821075,
3.612499952,214.7492676,
3.614166737,218.1071472,
3.615833282,217.7378845,
3.617500067,217.0887909,
3.619166851,215.7843323,
3.620833397,215.515976,
3.622500181,218.0363007,
3.624166727,215.2172241,
3.625833273,214.9950104,
3.627500057,216.0763092,
3.629166603,214.727356,
3.630833387,214.5006714,
3.632499933,215.4394379,
3.634166718,217.2183228,
3.635833502,215.3218994,
3.637500048,217.4707184,
3.639166832,217.1057434,
3.640833378,216.8861084,
3.642500162,216.0548096,
3.644166708,216.0695801,
3.645833254,217.7796021,
3.647500038,217.0291443,
3.649166584,215.6554718,
3.650833368,216.1551056,
3.652500153,215.474411,
3.654166698,215.1173401,
3.655833483,218.4243011,
3.657500029,216.3789978,
3.659166813,217.0216217,
3.660833597,216.2212677,
3.662499905,215.9060974,
3.664166689,216.994339,
3.665833235,218.3633575,
3.667500019,215.8769379,
3.669166803,216.4535217,
3.670833349,214.1832886,
3.672500134,215.7716064,
3.674166679,215.7746429,
3.675833464,215.3815155,
3.677500248,217.1506958,
3.679166555,214.5333405,
3.68083334,215.5791931,
3.682499886,215.7056732,
3.68416667,215.4399109,
3.685833454,215.6065674,
3.6875,214.4857025,
3.689166784,217.6664734,
3.69083333,217.174881,
3.692500114,215.5173492,
3.694166899,215.6916809,
3.695833445,215.7488251,
3.69749999,215.1480865,
3.699166536,217.0063934,
3.700833321,215.3995667,
3.702500105,216.3646851,
3.704166651,214.2344208,
3.705833435,216.5139771,
3.707499981,215.436264,
3.709166765,216.4550018,
3.710833549,215.0821228,
3.712500095,215.8696594,
3.71416688,215.9420776,
3.715833187,213.8125458,
3.717499971,214.9831848,
3.719166756,214.5801544,
3.720833302,215.1532135,
3.722500086,216.1828308,
3.724166632,216.8531647,
3.725833416,214.8487854,
3.7275002,215.181488,
3.729166746,215.7677612,
3.73083353,216.1681976,
3.732499838,214.4484863,
3.734166622,215.5401001,
3.735833406,215.4754028,
3.737499952,214.9010315,
3.739166737,215.902298,
3.740833282,214.7314911,
3.742500067,215.9175873,
3.744166851,218.2481842,
3.745833397,216.7464142,
3.747500181,217.1025543,
3.749166727,216.0033264,
3.750833273,214.746582,
3.752500057,216.3059692,
3.754166603,215.9555817,
3.755833387,215.1053009,
3.757499933,214.2940521,
3.759166718,214.2532043,
3.760833502,218.181488,
3.762500048,216.6871948,
3.764166832,214.4928284,
3.765833378,217.2414703,
3.767500162,214.5314178,
3.769166708,214.4428101,
3.770833254,215.9230804,
3.772500038,215.84552,
3.774166584,215.7112732,
3.775833368,217.0916443,
3.777500153,215.8246613,
3.779166698,214.9036713,
3.780833483,216.2395325,
3.782500029,215.6266327,
3.784166813,216.5436096,
3.785833597,214.9883881,
3.787499905,215.1338501,
3.789166689,214.9310913,
3.790833235,217.0396729,
3.792500019,216.4748077,
3.794166803,215.0850983,
3.795833349,214.8623505,
3.797500134,216.7516022,
3.799166679,215.7953033,
3.800833464,216.1531677,
3.802500248,215.7493439,
3.804166555,216.0419159,
3.80583334,216.6716309,
3.807499886,216.3496399,
3.80916667,216.1663208,
3.810833454,216.2687225,
3.8125,215.9230499,
3.814166784,215.8847961,
3.81583333,215.4484863,
3.817500114,215.5511932,
3.819166899,216.6824493,
3.820833445,214.7697144,
3.82249999,215.6296234,
3.824166536,216.4512024,
3.825833321,216.3544312,
3.827500105,214.7676697,
3.829166651,215.1276855,
3.830833435,217.3629456,
3.832499981,216.3208466,
3.834166765,216.0173645,
3.835833549,214.9966125,
3.837500095,216.5489502,
3.83916688,214.9163818,
3.840833187,215.2493286,
3.842499971,216.5541382,
3.844166756,216.5773315,
3.845833302,214.4109039,
3.847500086,216.3713989,
3.849166632,215.4286346,
3.850833416,218.2741089,
3.8525002,216.9416351,
3.854166746,213.0319977,
3.85583353,216.0822601,
3.857499838,216.2956848,
3.859166622,215.703125,
3.860833406,215.6387024,
3.862499952,215.0796814,
3.864166737,215.4010162,
3.865833282,214.5565948,
3.867500067,215.4707031,
3.869166851,217.026535,
3.870833397,214.9142914,
3.872500181,216.3638,
3.874166727,216.7295074,
3.875833273,216.5076294,
3.877500057,215.3532257,
3.879166603,214.6230774,
3.880833387,216.4691162,
3.882499933,216.5710297,
3.884166718,216.7262115,
3.885833502,215.4613037,
3.887500048,215.6490021,
3.889166832,216.3492737,
3.890833378,215.1448517,
3.892500162,214.5035553,
3.894166708,213.9823151,
3.895833254,215.3415375,
3.897500038,214.1439056,
3.899166584,215.5748291,
3.900833368,216.9919586,
3.902500153,213.8613434,
3.904166698,216.0830536,
3.905833483,216.6349487,
3.907500029,215.5853119,
3.909166813,215.2854156,
3.910833597,214.7244263,
3.912499905,215.8258514,
3.914166689,214.8483429,
3.915833235,215.5753937,
3.917500019,215.7485046,
3.919166803,214.9862366,
3.920833349,215.1907501,
3.922500134,215.0512848,
3.924166679,214.908493,
3.925833464,214.1591797,
3.927500248,217.0332794,
3.929166555,215.5568848,
3.93083334,216.4522552,
3.932499886,214.860199,
3.93416667,214.9961243,
3.935833454,216.366684,
3.9375,213.2060089,
3.939166784,214.2381897,
3.94083333,215.7120056,
3.942500114,214.7900085,
3.944166899,215.6527252,
3.945833445,216.1299438,
3.94749999,214.4299011,
3.949166536,214.0139465,
3.950833321,215.4677734,
3.952500105,215.9059601,
3.954166651,215.3707275,
3.955833435,215.2342682,
3.957499981,215.155014,
3.959166765,215.4986572,
3.960833549,214.6814423,
3.962500095,215.181366,
3.96416688,216.0125427,
3.965833187,215.3719482,
3.967499971,215.6042938,
3.969166756,215.5752258,
3.970833302,214.5987854,
3.972500086,216.1966705,
3.974166632,215.123703,
3.975833416,216.0289917,
3.9775002,215.2785034,
3.979166746,214.3505859,
3.98083353,214.8830414,
3.982499838,215.8679962,
3.984166622,215.1191559,
3.985833406,215.6244965,
3.987499952,216.5965729,
3.989166737,215.9295959,
3.990833282,215.0320282,
3.992500067,214.6896973,
3.994166851,214.5422974,
3.995833397,216.1964722,
3.997500181,214.037674,
3.999166727,214.5117035,
4.000833511,215.3189545,
4.002500057,214.2065582,
4.004166603,214.1788483,
4.005833626,216.1448517,
4.007500172,215.4060974,
4.009166718,215.7103119,
4.010833263,215.033905,
4.012499809,215.188385,
4.014166832,214.8266754,
4.015833378,215.0172729,
4.017499924,215.3308716,
4.019166946,216.6831818,
4.020833492,214.5384521,
4.022500038,211.5025787,
4.024166584,213.3513031,
4.025833607,213.8365479,
4.027500153,214.3562469,
4.029166698,215.5016632,
4.030833244,215.6533661,
4.03249979,214.2450562,
4.034166813,213.9768982,
4.035833359,215.4519958,
4.037499905,213.2773132,
4.039166927,215.4864197,
4.040833473,215.0721588,
4.042500019,213.5498657,
4.044167042,215.4565125,
4.045833111,214.0822906,
4.047500134,214.6300049,
4.049166679,212.9471436,
4.050833225,214.1370239,
4.052500248,217.45755,
4.054166794,215.1838684,
4.05583334,215.4425507,
4.057499886,214.0317535,
4.059166908,215.1278839,
4.060833454,215.7919769,
4.0625,213.9573059,
4.064166546,215.3466644,
4.065833092,215.4014893,
4.067500114,215.2099304,

