1,,
Time (min),Intensity (a.u.),
0.0008333333535,109.1940765,
0.002500000177,108.6335907,
0.004166666884,109.117012,
0.005833333358,108.7663803,
0.007500000298,109.2103577,
0.009166667238,109.0428696,
0.01083333418,108.1701279,
0.01250000019,108.1254196,
0.01416666713,109.515892,
0.01583333313,109.1111145,
0.01750000194,109.2681961,
0.01916666701,108.6522369,
0.02083333395,108.7564392,
0.02250000089,109.6231461,
0.02416666783,108.97229,
0.02583333477,109.5033264,
0.02749999985,108.9979095,
0.02916666679,109.3395691,
0.03083333373,109.959404,
0.03250000253,108.9012909,
0.03416666761,109.2537384,
0.03583333641,109.3142242,
0.03750000149,108.9455795,
0.03916667029,108.8319702,
0.04083333537,109.6403732,
0.04250000045,109.2926254,
0.04416666925,109.7069016,
0.04583333433,108.8828125,
0.04750000313,109.5517883,
0.04916666821,109.4340973,
0.05083333328,109.1146851,
0.05250000209,109.7388687,
0.05416666716,108.3911438,
0.05583333597,108.5951157,
0.05750000104,109.5750961,
0.05916666612,109.4190674,
0.06083333492,109.7112122,
0.0625,108.5015869,
0.06416667253,108.6437302,
0.0658333376,109.073494,
0.06750000268,109.5154648,
0.06916666776,109.6025848,
0.07083333284,110.0357666,
0.07249999791,109.4963455,
0.07416667044,109.7685471,
0.07583333552,109.0376053,
0.0775000006,108.9625244,
0.07916666567,109.3687439,
0.08083333075,109.2640228,
0.08250000328,109.134346,
0.08416666836,108.6040497,
0.08583333343,108.899086,
0.08749999851,108.4296112,
0.08916666359,109.3297424,
0.09083333611,109.5041733,
0.09250000119,108.8945236,
0.09416666627,109.7145691,
0.09583333135,108.9649582,
0.09749999642,109.0118103,
0.09916666895,109.2365265,
0.100833334,109.0002441,
0.1024999991,108.5003281,
0.1041666642,109.7021484,
0.1058333293,109.8075256,
0.1075000018,108.7718658,
0.1091666669,108.1396179,
0.1108333319,109.4384689,
0.112499997,109.253891,
0.1141666621,109.3224258,
0.1158333346,108.6133347,
0.1174999997,109.3739624,
0.1191666648,108.3569107,
0.1208333299,109.9034805,
0.1224999949,108.7309723,
0.1241666749,108.1006393,
0.1258333325,109.7073669,
0.1274999976,109.197525,
0.1291666627,108.3786316,
0.1308333278,108.8684464,
0.1325000077,108.992218,
0.1341666728,108.467926,
0.1358333379,109.0785141,
0.137500003,110.0914001,
0.1391666681,109.887352,
0.1408333331,108.1094208,
0.1424999982,109.6992569,
0.1441666782,109.2956619,
0.1458333284,109.3336716,
0.1475000083,108.8226395,
0.1491666585,109.0054474,
0.1508333385,108.5701904,
0.1525000036,109.1971741,
0.1541666687,109.5062866,
0.1558333337,109.118248,
0.1574999988,107.829216,
0.1591666639,109.0305786,
0.1608333439,108.7840271,
0.162499994,109.8776169,
0.164166674,107.6973038,
0.1658333242,108.3279953,
0.1675000042,109.5518036,
0.1691666692,108.7389984,
0.1708333343,108.7818222,
0.1724999994,109.5200882,
0.1741666645,107.8251266,
0.1758333296,108.7612381,
0.1775000095,110.1589279,
0.1791666597,108.5714645,
0.1808333397,109.2139893,
0.1824999899,110.1565704,
0.1841666698,108.5823364,
0.1858333498,109.0370102,
0.1875,108.4194565,
0.18916668,109.2632446,
0.1908333302,108.4362106,
0.1925000101,108.8518219,
0.1941666752,107.6747818,
0.1958333403,108.7740555,
0.1975000054,108.1250916,
0.1991666704,109.1993179,
0.2008333355,108.9450912,
0.2025000155,108.7335358,
0.2041666657,108.2568893,
0.2058333457,108.9091644,
0.2074999958,108.8550873,
0.2091666758,110.3370209,
0.2108333409,109.2904358,
0.212500006,109.6707458,
0.214166671,109.1131973,
0.2158333361,108.8112946,
0.2175000012,108.9212646,
0.2191666812,108.393837,
0.2208333313,109.2544937,
0.2225000113,108.5575562,
0.2241666615,109.4342117,
0.2258333415,107.9562759,
0.2275000066,109.5822678,
0.2291666716,108.993042,
0.2308333367,108.9446945,
0.2325000018,108.8609848,
0.2341666669,108.5678406,
0.2358333468,109.0747299,
0.237499997,110.5698776,
0.239166677,109.2864227,
0.2408333272,108.8353348,
0.2425000072,109.549324,
0.2441666722,109.6843491,
0.2458333373,108.6329269,
0.2475000024,109.6693802,
0.2491666675,109.2253494,
0.2508333325,108.0118484,
0.2524999976,108.7580872,
0.2541666627,108.9952698,
0.2558333278,108.7763214,
0.2574999928,109.0486298,
0.2591666579,109.8113403,
0.2608333528,109.6789703,
0.2624999881,108.7210083,
0.264166683,109.1811142,
0.2658333182,108.9720764,
0.2675000131,109.2307129,
0.2691666484,108.2504959,
0.2708333433,107.8479843,
0.2725000083,108.5550385,
0.2741666734,108.3798599,
0.2758333385,108.4213104,
0.2775000036,107.942421,
0.2791666687,108.6461563,
0.2808333337,110.6776581,
0.2824999988,110.0084229,
0.2841666937,108.3513565,
0.285833329,109.367012,
0.287499994,107.9799805,
0.2891666591,109.0500488,
0.290833354,108.7252426,
0.2925000191,109.7045135,
0.2941666543,108.7585907,
0.2958333194,109.4114304,
0.2975000143,109.7165985,
0.2991666794,108.4429016,
0.3008333445,107.9016571,
0.3024999797,108.9754028,
0.3041666746,109.2534332,
0.3058333397,108.8615875,
0.3075000048,109.098732,
0.3091666996,109.5509186,
0.3108333349,108.1342926,
0.3125,108.525589,
0.3141666651,107.4700775,
0.31583336,109.6695786,
0.317500025,108.4922409,
0.3191666603,108.2328873,
0.3208333254,109.1529694,
0.3225000203,109.0494156,
0.3241666853,107.7200165,
0.3258333504,107.3114243,
0.3274999857,109.4778366,
0.3291666806,108.7081985,
0.3308333457,108.6580963,
0.3325000107,109.070549,
0.3341666758,107.452919,
0.3358333409,109.4297485,
0.337500006,108.793602,
0.339166671,109.4842682,
0.3408333361,109.8019409,
0.342500031,108.2019119,
0.3441666663,108.3227768,
0.3458333313,109.9921951,
0.3474999964,110.3040543,
0.3491666913,108.0903473,
0.3508333564,108.7316895,
0.3524999917,108.6411285,
0.3541666567,108.9274597,
0.3558333516,108.8678894,
0.3575000167,108.7756348,
0.3591666818,109.3253784,
0.360833317,107.5801544,
0.3625000119,109.188591,
0.364166677,109.3662567,
0.3658333421,108.5843048,
0.3675000072,108.3335342,
0.3691666722,108.7720413,
0.3708333373,108.0975876,
0.3725000024,108.288002,
0.3741666675,108.6973572,
0.3758333623,108.8157349,
0.3774999976,108.6255722,
0.3791666627,109.3317413,
0.3808333278,108.5336075,
0.3825000226,108.5131226,
0.3841666877,109.3385391,
0.385833323,107.8891754,
0.3874999881,109.0241241,
0.389166683,109.4073868,
0.390833348,110.0954971,
0.3925000131,108.9136124,
0.3941666484,108.0722198,
0.3958333433,108.263176,
0.3975000083,108.9837036,
0.3991666734,108.651741,
0.4008333385,109.203125,
0.4025000036,108.7110062,
0.4041666687,109.9423294,
0.4058333337,108.9158707,
0.4074999988,109.9066238,
0.4091666937,109.2381134,
0.410833329,108.7720566,
0.412499994,108.5984421,
0.4141666591,109.1469116,
0.415833354,109.5689926,
0.4175000191,108.7916107,
0.4191666543,108.048027,
0.4208333194,108.2608337,
0.4225000143,108.4262619,
0.4241666794,108.5367432,
0.4258333445,107.2627945,
0.4274999797,109.0816422,
0.4291666746,108.978569,
0.4308333397,108.0450134,
0.4325000048,108.7104645,
0.4341666996,109.6464157,
0.4358333349,107.8826828,
0.4375,108.17099,
0.4391666651,109.2857895,
0.44083336,108.3948059,
0.442500025,109.4273911,
0.4441666603,109.5470581,
0.4458333254,108.6377869,
0.4475000203,109.4926682,
0.4491666853,108.047493,
0.4508333504,108.5564041,
0.4524999857,108.8756943,
0.4541666806,108.8717575,
0.4558333457,108.5635529,
0.4575000107,108.2964935,
0.4591666758,108.5474167,
0.4608333409,109.1771622,
0.462500006,108.8764954,
0.464166671,109.9951706,
0.4658333361,108.9959412,
0.467500031,109.4943314,
0.4691666663,109.4185181,
0.4708333313,108.1433716,
0.4724999964,107.7991562,
0.4741666913,109.1282883,
0.4758333564,107.6795654,
0.4774999917,108.2244873,
0.4791666567,107.6096268,
0.4808333516,108.7405548,
0.4825000167,108.8868484,
0.4841666818,107.2455978,
0.485833317,108.4343796,
0.4875000119,108.7153244,
0.489166677,108.8964157,
0.4908333421,109.08255,
0.4925000072,108.1176071,
0.4941666722,109.0675201,
0.4958333373,109.3161926,
0.4975000024,109.0244598,
0.4991666675,109.069252,
0.5008333325,109.6670914,
0.5024999976,108.7992554,
0.5041666627,108.2948608,
0.5058333278,108.4462128,
0.5074999928,108.251091,
0.5091666579,108.8711624,
0.510833323,109.6003418,
0.5124999881,108.0598831,
0.5141666532,107.8166962,
0.5158333182,108.7149353,
0.5175000429,109.3319855,
0.5191666484,108.2219925,
0.5208333135,108.0668564,
0.5224999785,109.6431198,
0.5241667032,108.6792679,
0.5258333683,108.2430649,
0.5274999738,108.6839828,
0.5291666389,109.0741959,
0.5308333635,108.8544235,
0.5325000286,108.846283,
0.5341666341,108.9280548,
0.5358333588,108.5266724,
0.5375000238,107.7204971,
0.5391666889,109.0727844,
0.540833354,109.1083221,
0.5424999595,108.86866,
0.5441666842,108.1099167,
0.5458333492,108.9639816,
0.5475000143,108.7576904,
0.5491666794,108.5609207,
0.5508333445,108.8045425,
0.5525000095,108.6365128,
0.5541666746,107.8814087,
0.5558333993,107.9900436,
0.5575000048,108.2486877,
0.5591666698,107.9059296,
0.5608333349,108.1713638,
0.5625,109.1663437,
0.5641667247,108.8471756,
0.5658333302,109.2481003,
0.5674999952,108.3819275,
0.5691667199,107.8995056,
0.5708333254,108.3024368,
0.5725000501,107.8838196,
0.5741666555,107.2990112,
0.5758333206,108.0950089,
0.5775000453,107.6697922,
0.5791666508,108.4971313,
0.5808333755,107.9182663,
0.5825000405,107.8548737,
0.584166646,108.5044556,
0.5858333707,108.7716599,
0.5874999762,109.3325653,
0.5891667008,108.4991837,
0.5908333659,107.5275269,
0.5924999714,109.0279922,
0.5941666961,108.9175491,
0.5958333611,109.5023804,
0.5975000262,107.9399261,
0.5991666913,108.9341888,
0.6008332968,109.3345871,
0.6025000215,108.2722931,
0.6041666865,109.4460678,
0.6058333516,108.8934708,
0.6075000167,108.1151047,
0.6091666818,107.7077484,
0.6108333468,108.95681,
0.6125000119,107.9693222,
0.614166677,108.8799133,
0.6158333421,109.0241623,
0.6175000072,107.9893494,
0.6191666722,109.2797089,
0.6208333373,109.0803833,
0.622500062,109.0524521,
0.6241666675,108.1695328,
0.6258333325,107.1322784,
0.6274999976,108.3517761,
0.6291666627,108.3221817,
0.6308333874,108.6663666,
0.6324999928,109.1264572,
0.6341666579,108.5487061,
0.6358333826,108.7736359,
0.6374999881,108.3419037,
0.6391667128,109.4592667,
0.6408333182,109.4109726,
0.6424999833,107.4389648,
0.644166708,108.2410355,
0.6458333135,108.2471085,
0.6475000381,109.5381241,
0.6491667032,108.2334442,
0.6508333087,108.5622864,
0.6525000334,107.7481232,
0.6541666389,108.3306198,
0.6558333635,108.6658173,
0.6575000286,108.6985626,
0.6591666341,108.1354523,
0.6608333588,108.8178024,
0.6625000238,107.3536682,
0.6641666889,109.7500229,
0.665833354,108.6793442,
0.6674999595,108.6193466,
0.6691666842,109.0183792,
0.6708333492,108.4280396,
0.6725000143,108.276619,
0.6741666794,108.52668,
0.6758333445,107.3505325,
0.6775000095,108.8925095,
0.6791666746,107.8446808,
0.6808333993,108.4408722,
0.6825000048,109.6627808,
0.6841666698,107.6971359,
0.6858333349,107.8256531,
0.6875,108.0679779,
0.6891667247,108.2751312,
0.6908333302,109.1347733,
0.6924999952,108.9744339,
0.6941667199,108.2280579,
0.6958333254,107.7071915,
0.6975000501,110.0862579,
0.6991666555,109.1945953,
0.7008333206,110.100174,
0.7025000453,107.2192917,
0.7041666508,107.8703232,
0.7058333755,108.4960175,
0.7075000405,108.675972,
0.709166646,108.7661133,
0.7108333707,108.7501373,
0.7124999762,108.9819565,
0.7141667008,109.1684036,
0.7158333659,108.7481918,
0.7174999714,108.8796921,
0.7191666961,108.5436096,
0.7208333611,108.9217606,
0.7225000262,109.0596619,
0.7241666913,108.6576385,
0.7258332968,108.993042,
0.7275000215,109.6916428,
0.7291666865,108.2090683,
0.7308333516,108.8949432,
0.7325000167,109.5870743,
0.7341666818,108.967865,
0.7358333468,108.3600388,
0.7375000119,107.7900391,
0.739166677,108.4511566,
0.7408333421,108.3590393,
0.7425000072,107.6947861,
0.7441666722,107.6626205,
0.7458333373,108.2000656,
0.747500062,107.7383118,
0.7491666675,108.3989944,
0.7508333325,109.1465836,
0.7524999976,108.9220047,
0.7541666627,107.4583893,
0.7558333874,109.2624283,
0.7574999928,108.9209976,
0.7591666579,108.7609177,
0.7608333826,108.7166824,
0.7624999881,109.1820145,
0.7641667128,108.5116043,
0.7658333182,108.0908356,
0.7674999833,108.8034668,
0.769166708,107.2240601,
0.7708333135,107.3092422,
0.7725000381,107.5324097,
0.7741667032,108.7707443,
0.7758333087,108.9960709,
0.7775000334,107.9478989,
0.7791666389,108.0035172,
0.7808333635,108.6887131,
0.7825000286,108.1378555,
0.7841666341,108.2850266,
0.7858333588,107.8713379,
0.7875000238,108.1620865,
0.7891666889,108.3666916,
0.790833354,108.6953888,
0.7924999595,108.9588242,
0.7941666842,108.5025787,
0.7958333492,108.2203903,
0.7975000143,107.7128143,
0.7991666794,107.9189072,
0.8008333445,106.5764313,
0.8025000095,109.1518936,
0.8041666746,108.3188553,
0.8058333993,109.1058502,
0.8075000048,108.1792908,
0.8091666698,109.5704422,
0.8108333349,108.876709,
0.8125,109.3370132,
0.8141667247,108.3102646,
0.8158333302,108.1118622,
0.8174999952,108.7511139,
0.8191667199,108.4751205,
0.8208333254,107.0643768,
0.8225000501,108.8866653,
0.8241666555,109.6492233,
0.8258333206,108.2912979,
0.8275000453,108.6939545,
0.8291666508,108.0586777,
0.8308333755,109.059494,
0.8325000405,108.5378342,
0.834166646,108.8337631,
0.8358333707,107.6660919,
0.8374999762,108.0212936,
0.8391667008,108.2924652,
0.8408333659,108.3789825,
0.8424999714,107.1578979,
0.8441666961,108.0197144,
0.8458333611,108.074379,
0.8475000262,108.6401672,
0.8491666913,108.6129913,
0.8508332968,108.7736816,
0.8525000215,108.7957077,
0.8541666865,108.7566757,
0.8558333516,108.2050247,
0.8575000167,108.0232086,
0.8591666818,108.5721741,
0.8608333468,107.649147,
0.8625000119,108.2908936,
0.864166677,109.1514053,
0.8658333421,107.7405167,
0.8675000072,108.6922455,
0.8691666722,109.067543,
0.8708333373,108.748909,
0.872500062,110.2667236,
0.8741666675,109.4041977,
0.8758333325,107.684227,
0.8774999976,109.4298553,
0.8791666627,107.6538696,
0.8808333874,107.9332733,
0.8824999928,107.4865494,
0.8841666579,107.9453049,
0.8858333826,109.5565186,
0.8874999881,108.2394714,
0.8891667128,109.2169266,
0.8908333182,107.5473404,
0.8924999833,109.2037659,
0.894166708,108.5731812,
0.8958333135,108.1586761,
0.8975000381,108.9284286,
0.8991667032,108.8295593,
0.9008333087,108.6363831,
0.9025000334,108.4158707,
0.9041666389,108.3599091,
0.9058333635,108.2074966,
0.9075000286,109.3853302,
0.9091666341,107.8892136,
0.9108333588,109.3749008,
0.9125000238,107.9575195,
0.9141666889,109.2027512,
0.915833354,109.0809021,
0.9174999595,108.4607849,
0.9191666842,108.0516586,
0.9208333492,108.3338318,
0.9225000143,108.2727432,
0.9241666794,109.1336441,
0.9258333445,108.4972687,
0.9275000095,107.8987885,
0.9291666746,108.8458176,
0.9308333993,107.8283615,
0.9325000048,108.6252518,
0.9341666698,108.453804,
0.9358333349,108.1284103,
0.9375,108.2672653,
0.9391667247,109.8098984,
0.9408333302,108.8087234,
0.9424999952,108.5163727,
0.9441667199,108.9478531,
0.9458333254,108.4436035,
0.9475000501,108.0516739,
0.9491666555,108.8324509,
0.9508333206,108.7561951,
0.9525000453,109.0429535,
0.9541666508,108.8786011,
0.9558333755,108.598671,
0.9575000405,109.4709625,
0.959166646,107.2977448,
0.9608333707,108.213356,
0.9624999762,107.4110184,
0.9641667008,108.7967072,
0.9658333659,108.0840912,
0.9674999714,108.0486603,
0.9691666961,109.1510468,
0.9708333611,108.3398819,
0.9725000262,107.9485092,
0.9741666913,108.4998703,
0.9758332968,109.2268448,
0.9775000215,108.4264374,
0.9791666865,108.8702469,
0.9808333516,108.8911438,
0.9825000167,108.6628494,
0.9841666818,108.5712204,
0.9858333468,108.8602295,
0.9875000119,109.0560226,
0.989166677,107.2637253,
0.9908333421,107.9420776,
0.9925000072,108.9486771,
0.9941666722,108.3278503,
0.9958333373,109.2856216,
0.997500062,109.5159836,
0.9991666675,108.7004395,
1.000833273,108.902771,
1.002500057,108.6245422,
1.004166722,108.419014,
1.005833387,109.1080017,
1.007500052,107.9876175,
1.009166598,108.5584488,
1.010833383,108.0159531,
1.012500048,108.3032074,
1.014166713,108.3467178,
1.015833378,108.0341873,
1.017500043,108.4901962,
1.019166708,107.7564545,
1.020833373,106.7544785,
1.022500038,107.8684082,
1.024166703,107.8703232,
1.025833368,108.7311096,
1.027500033,108.8115387,
1.029166698,107.6488419,
1.030833364,108.4656296,
1.032500029,107.9812775,
1.034166694,108.0896988,
1.035833359,107.7909622,
1.037500024,108.0849228,
1.039166689,107.6314087,
1.040833354,109.0571442,
1.042500019,108.6413727,
1.044166684,108.0158463,
1.045833349,108.3069305,
1.047500014,108.0588379,
1.049166679,108.4238663,
1.050833344,107.6712036,
1.05250001,107.8125458,
1.054166675,107.4737549,
1.05583334,108.1503754,
1.057500005,109.2308578,
1.05916667,101.1304855,
1.060833335,98.52832794,
1.0625,90.34012604,
1.064166665,98.27212524,
1.06583333,102.7602921,
1.067499995,102.3305817,
1.06916666,101.9291992,
1.070833325,105.4941711,
1.07249999,103.7053909,
1.074166775,106.4309006,
1.07583344,101.7630463,
1.077499986,101.1584854,
1.079166651,97.89085388,
1.080833316,101.8459396,
1.0825001,93.06635284,
1.084166765,102.7773209,
1.085833311,103.1724777,
1.087499976,103.9581985,
1.089166641,101.9199219,
1.090833426,102.6082687,
1.092500091,101.8959656,
1.094166636,102.432785,
1.095833302,102.1164703,
1.097499967,102.3202057,
1.099166751,100.9030685,
1.100833416,101.4030457,
1.102500081,101.7134857,
1.104166627,101.533699,
1.105833292,101.5066528,
1.107500076,99.85820007,
1.109166741,100.4163589,
1.110833406,100.8561249,
1.112499952,101.2373886,
1.114166617,98.74945831,
1.115833402,100.6747589,
1.117500067,98.87476349,
1.119166732,99.68437958,
1.120833278,99.14199066,
1.122499943,98.88549042,
1.124166727,98.92890167,
1.125833392,98.77914429,
1.127500057,98.45993042,
1.129166722,97.84615326,
1.130833268,98.313797,
1.132500052,97.48666382,
1.134166718,99.26396942,
1.135833383,97.81303406,
1.137500048,97.33691406,
1.139166594,97.70108032,
1.140833378,98.00701141,
1.142500043,96.71785736,
1.144166708,96.35697174,
1.145833373,95.87481689,
1.147499919,97.06994629,
1.149166703,96.62576294,
1.150833368,97.02774048,
1.152500033,96.66886902,
1.154166698,96.36326599,
1.155833364,95.58108521,
1.157500029,95.94425964,
1.159166694,96.36282349,
1.160833359,95.79611206,
1.162500024,94.8104248,
1.164166689,97.0921402,
1.165833354,95.05391693,
1.167500019,94.66475677,
1.169166684,95.38783264,
1.170833349,95.59210205,
1.172500014,94.65556335,
1.174166799,95.01620483,
1.175833344,95.60299683,
1.17750001,94.37446594,
1.179166675,94.45783997,
1.18083334,94.92153168,
1.182500124,94.46096802,
1.18416667,94.81253052,
1.185833335,94.34017944,
1.1875,94.1120224,
1.189166665,93.59976196,
1.190833449,93.76294708,
1.192499995,95.09014893,
1.19416666,93.71208954,
1.195833325,93.33888245,
1.19749999,93.33629608,
1.199166775,93.72917175,
1.20083344,93.37316895,
1.202499986,93.94088745,
1.204166651,93.44573212,
1.205833316,93.46465302,
1.2075001,92.2872467,
1.209166765,92.31907654,
1.210833311,93.33174133,
1.212499976,91.88169098,
1.214166641,93.25088501,
1.215833426,93.22489166,
1.217500091,92.14780426,
1.219166636,92.37657166,
1.220833302,92.14376831,
1.222499967,92.55722046,
1.224166751,91.39881897,
1.225833416,91.66368103,
1.227500081,92.13955688,
1.229166627,91.15452576,
1.230833292,92.45610046,
1.232500076,92.030159,
1.234166741,93.22511292,
1.235833406,92.82935333,
1.237499952,91.62166595,
1.239166617,91.92144775,
1.240833402,91.75942993,
1.242500067,91.12698364,
1.244166732,91.18843842,
1.245833278,91.68347168,
1.247499943,90.62934113,
1.249166727,90.85254669,
1.250833392,92.15032959,
1.252500057,90.62372589,
1.254166722,92.03746796,
1.255833268,91.3083725,
1.257500052,90.70270538,
1.259166718,90.72068787,
1.260833383,91.85791016,
1.262500048,90.62631989,
1.264166594,90.96150208,
1.265833378,91.332901,
1.267500043,90.48697662,
1.269166708,89.95924377,
1.270833373,91.16880798,
1.272499919,91.36166382,
1.274166703,90.9671402,
1.275833368,90.72747803,
1.277500033,90.91348267,
1.279166698,90.35122681,
1.280833364,91.1488266,
1.282500029,90.7457428,
1.284166694,89.94033051,
1.285833359,89.73535156,
1.287500024,89.90756226,
1.289166689,90.28327179,
1.290833354,90.06568146,
1.292500019,90.23655701,
1.294166684,90.21794891,
1.295833349,90.17707062,
1.297500014,88.73232269,
1.299166799,88.89546204,
1.300833344,89.46705627,
1.30250001,89.66980743,
1.304166675,90.22978973,
1.30583334,90.1370697,
1.307500124,90.03572845,
1.30916667,88.65006256,
1.310833335,88.78582001,
1.3125,89.8998642,
1.314166665,88.72610474,
1.315833449,89.67262268,
1.317499995,89.89277649,
1.31916666,88.62779236,
1.320833325,90.06550598,
1.32249999,88.22978973,
1.324166775,89.329216,
1.32583344,89.28837585,
1.327499986,89.21340179,
1.329166651,88.9128952,
1.330833316,89.03600311,
1.3325001,87.98780823,
1.334166765,88.93754578,
1.335833311,89.07054901,
1.337499976,88.91681671,
1.339166641,88.49795532,
1.340833426,89.13684845,
1.342500091,88.65725708,
1.344166636,88.58977509,
1.345833302,88.5375824,
1.347499967,88.67172241,
1.349166751,88.39821625,
1.350833416,88.49919891,
1.352500081,87.97930145,
1.354166627,88.55175018,
1.355833292,88.04795074,
1.357500076,88.80412292,
1.359166741,88.36508179,
1.360833406,88.12470245,
1.362499952,88.45283508,
1.364166617,87.98086548,
1.365833402,87.45733643,
1.367500067,88.07122803,
1.369166732,87.39348602,
1.370833278,87.78072357,
1.372499943,87.26780701,
1.374166727,88.02458954,
1.375833392,88.08074951,
1.377500057,87.24301147,
1.379166722,87.3861618,
1.380833268,87.97537994,
1.382500052,88.30564117,
1.384166718,87.66174316,
1.385833383,86.79212189,
1.387500048,88.51681519,
1.389166594,88.42965698,
1.390833378,87.70483398,
1.392500043,87.33882904,
1.394166708,87.26082611,
1.395833373,87.06013489,
1.397499919,88.11633301,
1.399166703,87.95625305,
1.400833368,87.20665741,
1.402500033,87.51490021,
1.404166698,88.06504059,
1.405833364,87.39507294,
1.407500029,88.24292755,
1.409166694,87.98648071,
1.410833359,87.87880707,
1.412500024,87.90518188,
1.414166689,87.82523346,
1.415833354,86.9519043,
1.417500019,87.49369812,
1.419166684,87.26332855,
1.420833349,86.37039185,
1.422500014,86.93591309,
1.424166799,87.5328598,
1.425833344,87.13033295,
1.42750001,87.98193359,
1.429166675,87.88304901,
1.43083334,87.23355865,
1.432500124,87.66548157,
1.43416667,87.36791992,
1.435833335,87.72265625,
1.4375,86.14103699,
1.439166665,88.09757233,
1.440833449,87.096138,
1.442499995,85.81235504,
1.44416666,86.69667053,
1.445833325,86.24497223,
1.44749999,87.45668793,
1.449166775,87.5769577,
1.45083344,86.8117981,
1.452499986,87.05084991,
1.454166651,86.32314301,
1.455833316,87.32935333,
1.4575001,87.11279297,
1.459166765,87.70459747,
1.460833311,86.40273285,
1.462499976,86.04911041,
1.464166641,86.98931885,
1.465833426,86.92164612,
1.467500091,86.49515533,
1.469166636,86.38916016,
1.470833302,86.19817352,
1.472499967,86.27908325,
1.474166751,86.87464142,
1.475833416,86.79924011,
1.477500081,86.30710602,
1.479166627,86.71537018,
1.480833292,86.37647247,
1.482500076,86.86597443,
1.484166741,85.44369507,
1.485833406,86.04499054,
1.487499952,87.25720215,
1.489166617,87.03037262,
1.490833402,86.95919037,
1.492500067,85.50261688,
1.494166732,86.26577759,
1.495833278,85.76727295,
1.497499943,86.6545105,
1.499166727,85.47090912,
1.500833392,86.42375946,
1.502500057,85.67236328,
1.504166722,85.36296844,
1.505833268,86.8947525,
1.507500052,85.95848083,
1.509166718,85.91555786,
1.510833383,85.68885803,
1.512500048,86.28400421,
1.514166594,86.01190186,
1.515833378,86.36678314,
1.517500043,85.71829224,
1.519166708,86.09155273,
1.520833373,85.57870483,
1.522499919,85.63863373,
1.524166703,85.83256531,
1.525833368,86.2930603,
1.527500033,85.88056946,
1.529166698,86.57776642,
1.530833364,85.92411041,
1.532500029,86.14498138,
1.534166694,86.10399628,
1.535833359,86.6242218,
1.537500024,86.51192474,
1.539166689,85.64040375,
1.540833354,85.86026764,
1.542500019,85.44803619,
1.544166684,86.04135895,
1.545833349,86.75826263,
1.547500014,86.39644623,
1.549166799,85.74281311,
1.550833344,85.95039368,
1.55250001,86.08028412,
1.554166675,85.97452545,
1.55583334,85.54611969,
1.557500124,85.57011414,
1.55916667,85.04442596,
1.560833335,85.31606293,
1.5625,85.57186127,
1.564166665,85.74510193,
1.565833449,85.71858215,
1.567499995,85.69299316,
1.56916666,85.67316437,
1.570833325,85.51685333,
1.57249999,85.26343536,
1.574166775,86.04555511,
1.57583344,85.35688782,
1.577499986,85.28897095,
1.579166651,85.20592499,
1.580833316,84.95118713,
1.5825001,85.472229,
1.584166765,86.76254272,
1.585833311,86.04859924,
1.587499976,85.74372864,
1.589166641,85.92713165,
1.590833426,85.905159,
1.592500091,85.89528656,
1.594166636,85.28681946,
1.595833302,85.59911346,
1.597499967,85.11104584,
1.599166751,84.6944809,
1.600833416,85.5614624,
1.602500081,84.81864166,
1.604166627,84.83870697,
1.605833292,84.56595612,
1.607500076,85.0486145,
1.609166741,84.92899323,
1.610833406,85.48561859,
1.612499952,85.52047729,
1.614166617,85.21561432,
1.615833402,85.04296112,
1.617500067,85.15421295,
1.619166732,85.2011261,
1.620833278,84.04899597,
1.622499943,85.50904846,
1.624166727,84.7620163,
1.625833392,84.73830414,
1.627500057,85.6785202,
1.629166722,84.64431763,
1.630833268,84.89239502,
1.632500052,84.93813324,
1.634166718,84.77667999,
1.635833383,84.51594543,
1.637500048,84.41094971,
1.639166594,84.81703949,
1.640833378,84.38918304,
1.642500043,84.41941833,
1.644166708,84.64781189,
1.645833373,84.50348663,
1.647499919,83.91840363,
1.649166703,84.32030487,
1.650833368,84.81819916,
1.652500033,84.04704285,
1.654166698,84.38780212,
1.655833364,85.52947235,
1.657500029,84.62490082,
1.659166694,84.56768036,
1.660833359,84.55457306,
1.662500024,85.53292847,
1.664166689,85.79184723,
1.665833354,84.43700409,
1.667500019,84.01000214,
1.669166684,84.14995575,
1.670833349,84.11849213,
1.672500014,85.05934906,
1.674166799,84.14129639,
1.675833344,84.68548584,
1.67750001,85.10943604,
1.679166675,84.00215912,
1.68083334,84.69501495,
1.682500124,84.51358795,
1.68416667,84.59188843,
1.685833335,84.61778259,
1.6875,84.77940369,
1.689166665,84.53703308,
1.690833449,84.19667816,
1.692499995,84.58073425,
1.69416666,85.14929199,
1.695833325,84.68434906,
1.69749999,83.64136505,
1.699166775,83.81577301,
1.70083344,84.33469391,
1.702499986,84.24465942,
1.704166651,84.36496735,
1.705833316,83.74655914,
1.7075001,84.48729706,
1.709166765,83.80116272,
1.710833311,84.65407562,
1.712499976,83.24520874,
1.714166641,83.68029022,
1.715833426,84.32842255,
1.717500091,84.8314209,
1.719166636,84.66681671,
1.720833302,84.62119293,
1.722499967,84.4912262,
1.724166751,84.59866333,
1.725833416,84.78376007,
1.727500081,84.63072968,
1.729166627,84.92866516,
1.730833292,83.12177277,
1.732500076,85.21389008,
1.734166741,84.08037567,
1.735833406,85.25183105,
1.737499952,83.81103516,
1.739166617,84.09573364,
1.740833402,84.02114105,
1.742500067,84.86074829,
1.744166732,84.12923431,
1.745833278,84.22375488,
1.747499943,84.2641449,
1.749166727,84.37445831,
1.750833392,84.20423126,
1.752500057,83.77536011,
1.754166722,83.652771,
1.755833268,84.83209229,
1.757500052,84.42229462,
1.759166718,83.85741425,
1.760833383,85.04858398,
1.762500048,84.10660553,
1.764166594,83.64234161,
1.765833378,84.6053772,
1.767500043,84.40194702,
1.769166708,84.35734558,
1.770833373,82.95998383,
1.772499919,83.936203,
1.774166703,84.61093903,
1.775833368,83.92015839,
1.777500033,83.11948395,
1.779166698,84.30415344,
1.780833364,83.4822464,
1.782500029,83.65643311,
1.784166694,84.3537674,
1.785833359,83.66034698,
1.787500024,84.44438934,
1.789166689,83.49687958,
1.790833354,84.26833344,
1.792500019,83.04005432,
1.794166684,84.16509247,
1.795833349,83.84439087,
1.797500014,83.24167633,
1.799166799,83.94371033,
1.800833344,83.05474091,
1.80250001,83.02547455,
1.804166675,83.63881683,
1.80583334,83.35106659,
1.807500124,83.86408234,
1.80916667,83.92168427,
1.810833335,83.90931702,
1.8125,83.12967682,
1.814166665,84.49225616,
1.815833449,83.96292114,
1.817499995,83.13778687,
1.81916666,83.97229767,
1.820833325,83.80483246,
1.82249999,84.26067352,
1.824166775,83.75288391,
1.82583344,83.08985901,
1.827499986,83.20701599,
1.829166651,84.09682465,
1.830833316,83.29580688,
1.8325001,82.84177399,
1.834166765,84.85921478,
1.835833311,83.49652863,
1.837499976,82.59687042,
1.839166641,83.67021179,
1.840833426,83.04285431,
1.842500091,82.74609375,
1.844166636,83.32675171,
1.845833302,83.67314148,
1.847499967,82.89156342,
1.849166751,84.23843384,
1.850833416,84.39987183,
1.852500081,83.60293579,
1.854166627,83.25219727,
1.855833292,83.80724335,
1.857500076,84.11949158,
1.859166741,84.25443268,
1.860833406,83.73918152,
1.862499952,84.177948,
1.864166617,84.5041275,
1.865833402,83.86903381,
1.867500067,84.19680023,
1.869166732,83.94792175,
1.870833278,83.46163177,
1.872499943,83.71661377,
1.874166727,83.166008,
1.875833392,82.43482208,
1.877500057,84.0652771,
1.879166722,83.19316101,
1.880833268,83.00488281,
1.882500052,83.02609253,
1.884166718,83.88204193,
1.885833383,83.85684204,
1.887500048,84.24395752,
1.889166594,82.95243835,
1.890833378,83.21802521,
1.892500043,83.08255005,
1.894166708,83.78437805,
1.895833373,83.934021,
1.897499919,83.82113647,
1.899166703,83.01584625,
1.900833368,83.48921967,
1.902500033,83.96215057,
1.904166698,83.87000275,
1.905833364,83.70974731,
1.907500029,83.42463684,
1.909166694,82.84268188,
1.910833359,82.8188324,
1.912500024,83.01580048,
1.914166689,82.60869598,
1.915833354,82.89177704,
1.917500019,82.6816864,
1.919166684,83.18036652,
1.920833349,83.74497986,
1.922500014,82.53987122,
1.924166799,83.75012207,
1.925833344,83.30329132,
1.92750001,83.27728271,
1.929166675,83.02546692,
1.93083334,83.86196899,
1.932500124,82.97421265,
1.93416667,83.28549957,
1.935833335,82.70336151,
1.9375,83.00287628,
1.939166665,82.92556763,
1.940833449,83.1400528,
1.942499995,82.55327606,
1.94416666,83.29399872,
1.945833325,82.96486664,
1.94749999,82.64453125,
1.949166775,83.3978653,
1.95083344,82.54311371,
1.952499986,83.24179077,
1.954166651,82.16941071,
1.955833316,83.15523529,
1.9575001,83.84429932,
1.959166765,83.34182739,
1.960833311,82.88526917,
1.962499976,82.95232391,
1.964166641,83.02248383,
1.965833426,83.38938904,
1.967500091,82.7188797,
1.969166636,82.66824341,
1.970833302,82.93506622,
1.972499967,83.87339783,
1.974166751,83.04608154,
1.975833416,83.07276917,
1.977500081,82.5346756,
1.979166627,83.1624527,
1.980833292,83.23844147,
1.982500076,83.35714722,
1.984166741,82.64925385,
1.985833406,83.48175049,
1.987499952,83.83236694,
1.989166617,82.04743195,
1.990833402,82.91233826,
1.992500067,83.35167694,
1.994166732,83.62247467,
1.995833278,82.67704773,
1.997499943,84.63857269,
1.999166727,82.88816071,
2.000833273,82.86114502,
2.002500057,83.02465057,
2.004166603,83.40499878,
2.005833387,82.55867004,
2.007500172,82.6088028,
2.009166718,82.56737518,
2.010833263,83.49224854,
2.012500048,83.63240051,
2.014166594,82.96391296,
2.015833378,82.52719879,
2.017500162,83.86527252,
2.019166708,82.12779999,
2.020833254,82.8997345,
2.022500038,82.42678833,
2.024166822,83.43174744,
2.025833368,82.92225647,
2.027499914,82.82543945,
2.029166698,82.97485352,
2.030833244,83.54336548,
2.032500029,82.9179306,
2.034166813,82.28647614,
2.035833359,82.35434723,
2.037499905,82.41893768,
2.039166689,82.61441803,
2.040833473,82.88975525,
2.042500019,82.6555481,
2.044166803,82.68065643,
2.045833349,82.86036682,
2.047499895,82.18235016,
2.049166679,83.40483093,
2.050833464,83.72659302,
2.05250001,84.53324127,
2.054166555,82.72387695,
2.05583334,82.52968597,
2.057500124,82.70895386,
2.05916667,82.2062149,
2.060833454,83.03006744,
2.0625,83.18205261,
2.064166546,83.69756317,
2.06583333,81.78695679,
2.067500114,82.97967529,
2.06916666,82.75824738,
2.070833445,82.39472961,
2.07249999,82.76508331,
2.074166775,83.53379059,
2.075833321,83.80632019,
2.077500105,82.82446289,
2.079166651,82.27783966,
2.080833197,82.17938995,
2.082499981,83.35004425,
2.084166765,82.15896606,
2.085833311,83.12545776,
2.087500095,82.96488953,
2.089166641,82.724617,
2.090833426,82.01374817,
2.092499971,82.7191391,
2.094166756,82.72692871,
2.095833302,82.17625427,
2.097500086,83.32317352,
2.099166632,82.12116241,
2.100833416,82.89586639,
2.102499962,82.8830719,
2.104166746,82.57405853,
2.105833292,83.23712921,
2.107500076,83.96859741,
2.109166622,82.62473297,
2.110833406,82.79006195,
2.112499952,82.39363861,
2.114166737,82.71692657,
2.115833521,82.61406708,
2.117500067,82.35435486,
2.119166613,83.88535309,
2.120833397,82.49520874,
2.122499943,83.37536621,
2.124166727,82.46092987,
2.125833273,83.41970062,
2.127500057,82.76525116,
2.129166603,83.08087921,
2.130833387,82.62589264,
2.132500172,82.50896454,
2.134166718,81.99547577,
2.135833502,82.40206146,
2.137500048,82.93470764,
2.139166832,82.64477539,
2.140833378,82.52849579,
2.142500162,82.18537903,
2.144166708,83.02474213,
2.145833254,83.16724396,
2.147500038,81.95574188,
2.149166584,83.41255188,
2.150833368,82.36184692,
2.152500153,81.97548676,
2.154166698,80.88975525,
2.155833483,82.59324646,
2.157500029,82.1951828,
2.159166813,82.58592224,
2.160833597,82.08100891,
2.162499905,83.40040588,
2.164166689,82.7024231,
2.165833235,82.39769745,
2.167500019,83.32369232,
2.169166803,82.91329193,
2.170833349,81.72785187,
2.172500134,83.36444855,
2.174166679,82.67927551,
2.175833464,82.92454529,
2.177500248,83.27587128,
2.179166555,82.68134308,
2.18083334,82.95002747,
2.182499886,83.02670288,
2.18416667,82.83074951,
2.185833454,82.62302399,
2.1875,82.215065,
2.189166784,83.40474701,
2.19083333,82.96692657,
2.192500114,82.16060638,
2.194166899,82.17887115,
2.195833445,82.42788696,
2.19749999,82.45704651,
2.199166536,82.80163574,
2.200833321,82.74680328,
2.202500105,82.10990143,
2.204166651,82.49074554,
2.205833435,81.37228394,
2.207499981,82.54660034,
2.209166765,82.28794861,
2.210833549,81.97196198,
2.212500095,82.29086304,
2.21416688,82.27086639,
2.215833187,82.22118378,
2.217499971,82.33597565,
2.219166756,82.54081726,
2.220833302,82.90969086,
2.222500086,83.10787964,
2.224166632,82.40270996,
2.225833416,82.33049774,
2.2275002,82.33551025,
2.229166746,82.05185699,
2.23083353,82.19202423,
2.232499838,81.98792267,
2.234166622,81.89175415,
2.235833406,82.443367,
2.237499952,82.37526703,
2.239166737,81.75482941,
2.240833282,82.6414032,
2.242500067,82.42404175,
2.244166851,82.53266144,
2.245833397,81.82028961,
2.247500181,82.3993988,
2.249166727,82.50022125,
2.250833273,81.95236969,
2.252500057,81.884552,
2.254166603,81.95197296,
2.255833387,82.45920563,
2.257499933,82.27085876,
2.259166718,82.0283432,
2.260833502,82.47809601,
2.262500048,82.33544159,
2.264166832,82.02555847,
2.265833378,81.63301849,
2.267500162,83.29431915,
2.269166708,82.45056152,
2.270833254,82.59889221,
2.272500038,81.91870117,
2.274166584,82.41613007,
2.275833368,81.49557495,
2.277500153,81.37735748,
2.279166698,82.41246033,
2.280833483,82.19071198,
2.282500029,82.52031708,
2.284166813,82.34004211,
2.285833597,82.21270752,
2.287499905,82.42572784,
2.289166689,81.70285797,
2.290833235,82.0272522,
2.292500019,81.91564941,
2.294166803,82.70957947,
2.295833349,83.41018677,
2.297500134,82.4937973,
2.299166679,81.46881866,
2.300833464,82.96340179,
2.302500248,82.43209076,
2.304166555,82.2817688,
2.30583334,80.77194214,
2.307499886,82.72034454,
2.30916667,81.61212921,
2.310833454,81.78500366,
2.3125,82.93804169,
2.314166784,82.54594421,
2.31583333,82.37854767,
2.317500114,83.0625,
2.319166899,81.58692169,
2.320833445,81.7143631,
2.32249999,81.48503113,
2.324166536,81.74786377,
2.325833321,81.632164,
2.327500105,81.66118622,
2.329166651,81.92173767,
2.330833435,81.8522644,
2.332499981,82.08968353,
2.334166765,82.9023819,
2.335833549,82.30964661,
2.337500095,81.99398804,
2.33916688,81.79148865,
2.340833187,81.79988098,
2.342499971,82.66098022,
2.344166756,82.60144043,
2.345833302,81.83221436,
2.347500086,82.88077545,
2.349166632,81.34011078,
2.350833416,82.57865906,
2.3525002,81.9741745,
2.354166746,82.52220917,
2.35583353,81.46802521,
2.357499838,82.40654755,
2.359166622,82.46029663,
2.360833406,82.60257721,
2.362499952,82.58486938,
2.364166737,81.80962372,
2.365833282,82.24172211,
2.367500067,82.46086884,
2.369166851,82.33226776,
2.370833397,82.7019577,
2.372500181,82.77617645,
2.374166727,81.93222809,
2.375833273,81.76799774,
2.377500057,81.89411163,
2.379166603,82.42314148,
2.380833387,82.19556427,
2.382499933,82.25547028,
2.384166718,81.72924805,
2.385833502,82.81804657,
2.387500048,81.57209015,
2.389166832,82.51538086,
2.390833378,81.76635742,
2.392500162,82.10097504,
2.394166708,81.64015198,
2.395833254,81.84707642,
2.397500038,82.02947235,
2.399166584,82.31239319,
2.400833368,81.75610352,
2.402500153,82.10689545,
2.404166698,82.74891663,
2.405833483,82.68539429,
2.407500029,82.1048584,
2.409166813,81.58847046,
2.410833597,82.05380249,
2.412499905,82.08184814,
2.414166689,83.35071564,
2.415833235,82.34283447,
2.417500019,82.15252686,
2.419166803,82.1606369,
2.420833349,82.18492126,
2.422500134,81.73442078,
2.424166679,82.21279144,
2.425833464,83.19156647,
2.427500248,81.45900726,
2.429166555,82.54802704,
2.43083334,83.0827179,
2.432499886,82.75119781,
2.43416667,81.46531677,
2.435833454,81.76768494,
2.4375,82.85694122,
2.439166784,80.94654083,
2.44083333,81.87659454,
2.442500114,81.07192993,
2.444166899,81.39912415,
2.445833445,82.02298737,
2.44749999,81.9811554,
2.449166536,81.93770599,
2.450833321,81.28063965,
2.452500105,82.23433685,
2.454166651,81.1869278,
2.455833435,81.00345612,
2.457499981,82.10643005,
2.459166765,81.15653992,
2.460833549,81.95581818,
2.462500095,82.61694336,
2.46416688,81.41577148,
2.465833187,81.55233765,
2.467499971,82.07004547,
2.469166756,82.33117676,
2.470833302,81.73000336,
2.472500086,80.72971344,
2.474166632,81.51080322,
2.475833416,81.61190033,
2.4775002,81.95101929,
2.479166746,82.24542236,
2.48083353,81.98706818,
2.482499838,81.3684082,
2.484166622,81.81890869,
2.485833406,82.79665375,
2.487499952,82.39126587,
2.489166737,81.90126038,
2.490833282,81.81481171,
2.492500067,82.53385162,
2.494166851,81.74362946,
2.495833397,82.16730499,
2.497500181,80.82020569,
2.499166727,81.25888824,
2.500833273,81.86181641,
2.502500057,82.18935394,
2.504166603,82.03617096,
2.505833387,82.04353333,
2.507499933,82.53820801,
2.509166718,81.53484344,
2.510833502,81.50202942,
2.512500048,82.60109711,
2.514166832,81.15979767,
2.515833378,82.10961151,
2.517500162,81.44582367,
2.519166708,81.61594391,
2.520833254,82.00172424,
2.522500038,81.34433746,
2.524166584,81.5954895,
2.525833368,81.46234131,
2.527500153,81.32559204,
2.529166698,81.6807251,
2.530833483,82.53302002,
2.532500029,81.78774261,
2.534166813,81.52410889,
2.535833597,81.37001801,
2.537499905,82.03202057,
2.539166689,81.95280457,
2.540833235,81.43543243,
2.542500019,81.90587616,
2.544166803,81.29191589,
2.545833349,81.40236664,
2.547500134,81.43722534,
2.549166679,82.31797028,
2.550833464,81.24662781,
2.552500248,81.01478577,
2.554166555,80.98641205,
2.55583334,81.56672668,
2.557499886,81.84854126,
2.55916667,82.13200378,
2.560833454,82.09992981,
2.5625,82.31025696,
2.564166784,81.57472229,
2.56583333,80.62391663,
2.567500114,81.76860809,
2.569166899,81.55236053,
2.570833445,81.7230835,
2.57249999,81.42552948,
2.574166536,81.7571106,
2.575833321,81.95633698,
2.577500105,81.10855865,
2.579166651,81.58485413,
2.580833435,81.2539444,
2.582499981,82.15797424,
2.584166765,81.34439087,
2.585833549,81.52603149,
2.587500095,80.91038513,
2.58916688,82.46518707,
2.590833187,81.69944763,
2.592499971,81.72039032,
2.594166756,81.23632813,
2.595833302,81.25622559,
2.597500086,81.9859314,
2.599166632,81.22208405,
2.600833416,82.31622314,
2.6025002,81.7397995,
2.604166746,80.89574432,
2.60583353,80.84297943,
2.607499838,82.13609314,
2.609166622,81.35041046,
2.610833406,81.86600494,
2.612499952,81.27780914,
2.614166737,82.11965942,
2.615833282,81.94458008,
2.617500067,82.60840607,
2.619166851,81.24597931,
2.620833397,81.17732239,
2.622500181,81.25942993,
2.624166727,82.04058075,
2.625833273,81.83750153,
2.627500057,82.69326019,
2.629166603,81.41033173,
2.630833387,81.81376648,
2.632499933,81.78011322,
2.634166718,81.77008057,
2.635833502,81.95024872,
2.637500048,81.76476288,
2.639166832,80.96543884,
2.640833378,81.59044647,
2.642500162,81.91253662,
2.644166708,81.59107208,
2.645833254,81.61364746,
2.647500038,82.45459747,
2.649166584,82.19032288,
2.650833368,81.26264954,
2.652500153,81.32841492,
2.654166698,81.35632324,
2.655833483,81.8390274,
2.657500029,81.47429657,
2.659166813,81.89838409,
2.660833597,82.27228546,
2.662499905,81.56343842,
2.664166689,80.71272278,
2.665833235,81.53645325,
2.667500019,82.32350159,
2.669166803,81.4254303,
2.670833349,81.11393738,
2.672500134,81.76374817,
2.674166679,81.75486755,
2.675833464,81.1260376,
2.677500248,81.35389709,
2.679166555,80.83135986,
2.68083334,81.47393799,
2.682499886,80.4788208,
2.68416667,81.32815552,
2.685833454,81.91200256,
2.6875,80.64381409,
2.689166784,81.28127289,
2.69083333,82.63106537,
2.692500114,81.86978149,
2.694166899,81.44167328,
2.695833445,80.9467926,
2.69749999,81.56492615,
2.699166536,81.44390869,
2.700833321,81.24826813,
2.702500105,81.21942139,
2.704166651,82.36507416,
2.705833435,81.62683105,
2.707499981,81.23267365,
2.709166765,80.96538544,
2.710833549,81.56278229,
2.712500095,81.33296204,
2.71416688,82.14258575,
2.715833187,81.88678741,
2.717499971,82.14761353,
2.719166756,80.98109436,
2.720833302,81.17621613,
2.722500086,82.03272247,
2.724166632,81.80130005,
2.725833416,81.56301117,
2.7275002,81.57557678,
2.729166746,81.41918182,
2.73083353,80.40599823,
2.732499838,81.73938751,
2.734166622,81.26068115,
2.735833406,81.85973358,
2.737499952,81.4001236,
2.739166737,81.44895935,
2.740833282,81.15661621,
2.742500067,81.82278442,
2.744166851,81.88494873,
2.745833397,81.50827789,
2.747500181,81.47299194,
2.749166727,81.75485992,
2.750833273,81.68598175,
2.752500057,81.6005249,
2.754166603,81.43241119,
2.755833387,81.29410553,
2.757499933,81.67497253,
2.759166718,80.83807373,
2.760833502,81.06391907,
2.762500048,80.60022736,
2.764166832,80.79992676,
2.765833378,82.36191559,
2.767500162,81.43231201,
2.769166708,81.95289612,
2.770833254,82.01320648,
2.772500038,81.31311035,
2.774166584,82.09295654,
2.775833368,81.34728241,
2.777500153,81.65263367,
2.779166698,81.3496933,
2.780833483,80.15130615,
2.782500029,81.35399628,
2.784166813,80.95880127,
2.785833597,81.33427429,
2.787499905,80.80215454,
2.789166689,81.56256866,
2.790833235,81.28754425,
2.792500019,81.6131897,
2.794166803,81.29124451,
2.795833349,81.09843445,
2.797500134,80.85494232,
2.799166679,80.4056778,
2.800833464,80.93640137,
2.802500248,81.14064789,
2.804166555,81.43586731,
2.80583334,81.64756012,
2.807499886,81.53955078,
2.80916667,80.84477234,
2.810833454,80.56139374,
2.8125,81.37271881,
2.814166784,81.6177597,
2.81583333,81.01544189,
2.817500114,81.22387695,
2.819166899,81.35771942,
2.820833445,81.79763794,
2.82249999,81.69005585,
2.824166536,81.34103394,
2.825833321,81.31156921,
2.827500105,81.50588989,
2.829166651,81.62685394,
2.830833435,80.87623596,
2.832499981,81.21668243,
2.834166765,81.21286011,
2.835833549,80.98901367,
2.837500095,80.70080566,
2.83916688,81.45449829,
2.840833187,80.54504395,
2.842499971,80.26303864,
2.844166756,80.84803772,
2.845833302,81.05613708,
2.847500086,81.1708374,
2.849166632,80.08232117,
2.850833416,80.82011414,
2.8525002,81.01290894,
2.854166746,81.86229706,
2.85583353,81.98330688,
2.857499838,81.176651,
2.859166622,81.4743576,
2.860833406,80.90943146,
2.862499952,81.78349304,
2.864166737,81.32084656,
2.865833282,81.66386414,
2.867500067,81.43465424,
2.869166851,81.34072113,
2.870833397,81.38152313,
2.872500181,81.96392059,
2.874166727,81.91345215,
2.875833273,80.72859955,
2.877500057,81.795578,
2.879166603,81.76088715,
2.880833387,81.31665039,
2.882499933,81.58219147,
2.884166718,81.26727295,
2.885833502,81.23022461,
2.887500048,81.63778687,
2.889166832,80.93666077,
2.890833378,81.57634735,
2.892500162,80.0402832,
2.894166708,80.97462463,
2.895833254,81.16195679,
2.897500038,81.45600891,
2.899166584,81.77734375,
2.900833368,81.7040329,
2.902500153,81.48039246,
2.904166698,81.19153595,
2.905833483,80.62823486,
2.907500029,81.24730682,
2.909166813,81.64591217,
2.910833597,80.67610931,
2.912499905,81.42210388,
2.914166689,81.07867432,
2.915833235,81.34255981,
2.917500019,81.79830933,
2.919166803,79.7246933,
2.920833349,81.13174438,
2.922500134,80.90925598,
2.924166679,81.5814209,
2.925833464,80.89377594,
2.927500248,81.2874527,
2.929166555,81.48078156,
2.93083334,80.52707672,
2.932499886,80.75040436,
2.93416667,81.21611786,
2.935833454,80.50839233,
2.9375,81.01245117,
2.939166784,81.40881348,
2.94083333,81.41883087,
2.942500114,80.66168213,
2.944166899,80.94380188,
2.945833445,81.45588684,
2.94749999,81.35818481,
2.949166536,81.13832855,
2.950833321,81.48014069,
2.952500105,81.29116821,
2.954166651,81.97380066,
2.955833435,80.83350372,
2.957499981,80.54876709,
2.959166765,80.36679077,
2.960833549,81.33344269,
2.962500095,82.06840515,
2.96416688,81.58448029,
2.965833187,80.72741699,
2.967499971,81.81485748,
2.969166756,81.24719238,
2.970833302,80.81313324,
2.972500086,81.92180634,
2.974166632,81.37012482,
2.975833416,80.88742828,
2.9775002,80.91065979,
2.979166746,81.08544922,
2.98083353,80.83887482,
2.982499838,81.07169342,
2.984166622,80.6989975,
2.985833406,81.53701782,
2.987499952,80.96886444,
2.989166737,81.76793671,
2.990833282,80.5417099,
2.992500067,80.68701935,
2.994166851,80.75614166,
2.995833397,80.15040588,
2.997500181,80.7015686,
2.999166727,80.54892731,
3.000833273,81.27714539,
3.002500057,82.05712128,
3.004166603,80.71740723,
3.005833387,81.72168732,
3.007499933,81.7243042,
3.009166718,81.22776031,
3.010833502,80.55055237,
3.012500048,80.53702545,
3.014166832,80.97920227,
3.015833378,80.56219482,
3.017500162,81.16699219,
3.019166708,80.54165649,
3.020833254,81.42834473,
3.022500038,80.95050049,
3.024166584,80.70310974,
3.025833368,80.74742126,
3.027500153,81.05963135,
3.029166698,81.74277496,
3.030833483,80.63228607,
3.032500029,80.05975342,
3.034166813,80.35887146,
3.035833597,80.5723877,
3.037499905,80.62342072,
3.039166689,80.41872406,
3.040833235,81.16592407,
3.042500019,80.42660522,
3.044166803,80.7431488,
3.045833349,81.0378418,
3.047500134,80.66945648,
3.049166679,80.88079071,
3.050833464,81.04267883,
3.052500248,80.85273743,
3.054166555,80.9340744,
3.05583334,81.03762817,
3.057499886,81.58699036,
3.05916667,81.46678162,
3.060833454,81.28982544,
3.0625,80.93269348,
3.064166784,81.60321045,
3.06583333,80.79955292,
3.067500114,80.98777008,
3.069166899,81.40486908,
3.070833445,80.82435608,
3.07249999,81.2858963,
3.074166536,80.34996796,
3.075833321,81.28767395,
3.077500105,81.18585205,
3.079166651,81.54870605,
3.080833435,80.86244202,
3.082499981,80.73415375,
3.084166765,80.37837219,
3.085833549,81.38000488,
3.087500095,80.7226944,
3.08916688,81.66693115,
3.090833187,81.54730225,
3.092499971,79.8522644,
3.094166756,81.20354462,
3.095833302,81.65130615,
3.097500086,81.86186981,
3.099166632,81.75721741,
3.100833416,80.67941284,
3.1025002,80.06806183,
3.104166746,81.18711853,
3.10583353,80.85002136,
3.107499838,81.65621185,
3.109166622,80.24124146,
3.110833406,81.42940521,
3.112499952,81.11632538,
3.114166737,81.53953552,
3.115833282,80.5983429,
3.117500067,80.91308594,
3.119166851,81.15460968,
3.120833397,81.2665863,
3.122500181,79.78968811,
3.124166727,81.95578766,
3.125833273,80.7520752,
3.127500057,81.35363007,
3.129166603,81.6235199,
3.130833387,81.08575439,
3.132499933,80.48368073,
3.134166718,80.74790955,
3.135833502,79.35777283,
3.137500048,80.61788177,
3.139166832,81.04285431,
3.140833378,80.94489288,
3.142500162,80.72550964,
3.144166708,80.47336578,
3.145833254,80.59150696,
3.147500038,81.43551636,
3.149166584,80.71273041,
3.150833368,81.28038025,
3.152500153,80.56069183,
3.154166698,80.6050415,
3.155833483,81.65114594,
3.157500029,81.19075012,
3.159166813,80.83670807,
3.160833597,81.82128143,
3.162499905,80.90665436,
3.164166689,81.15132904,
3.165833235,81.12281799,
3.167500019,81.26843262,
3.169166803,80.82205963,
3.170833349,80.75527954,
3.172500134,81.68912506,
3.174166679,80.7421875,
3.175833464,81.48004913,
3.177500248,81.15110779,
3.179166555,81.31636047,
3.18083334,82.00306702,
3.182499886,80.88064575,
3.18416667,80.70500183,
3.185833454,81.16054535,
3.1875,81.1879425,
3.189166784,80.82566833,
3.19083333,80.84138489,
3.192500114,80.70731354,
3.194166899,80.80408478,
3.195833445,81.56498718,
3.19749999,80.65387726,
3.199166536,81.79156494,
3.200833321,81.2710495,
3.202500105,80.99391937,
3.204166651,80.20543671,
3.205833435,80.29890442,
3.207499981,81.62545776,
3.209166765,81.03726196,
3.210833549,81.18968964,
3.212500095,81.78258514,
3.21416688,81.20397949,
3.215833187,80.62128448,
3.217499971,80.28201294,
3.219166756,81.13342285,
3.220833302,80.98042297,
3.222500086,80.1709671,
3.224166632,81.2179718,
3.225833416,81.16286469,
3.2275002,80.83334351,
3.229166746,79.74099731,
3.23083353,80.73718262,
3.232499838,80.74420929,
3.234166622,80.57060242,
3.235833406,81.41175842,
3.237499952,81.00241089,
3.239166737,80.78715515,
3.240833282,80.55309296,
3.242500067,80.58378601,
3.244166851,81.78294373,
3.245833397,80.6957016,
3.247500181,80.49182129,
3.249166727,80.57678986,
3.250833273,80.23767853,
3.252500057,80.72605133,
3.254166603,81.08483887,
3.255833387,81.69606781,
3.257499933,80.93959045,
3.259166718,80.87722778,
3.260833502,80.30843353,
3.262500048,81.4808197,
3.264166832,79.39624023,
3.265833378,81.26680756,
3.267500162,81.1344986,
3.269166708,80.20711517,
3.270833254,80.73500824,
3.272500038,81.25971985,
3.274166584,81.81530762,
3.275833368,81.43930054,
3.277500153,81.19675446,
3.279166698,81.16327667,
3.280833483,81.34790039,
3.282500029,81.0063858,
3.284166813,80.96263123,
3.285833597,80.74030304,
3.287499905,81.30609894,
3.289166689,80.39690399,
3.290833235,80.24940491,
3.292500019,80.32581329,

