1,,
Time (min),Intensity (a.u.),
0.0008333333535,123.235405,
0.002500000177,123.6156769,
0.004166666884,122.4332886,
0.005833333358,122.2325974,
0.007500000298,122.858345,
0.009166667238,123.0069351,
0.01083333418,123.3666763,
0.01250000019,123.760231,
0.01416666713,121.3594894,
0.01583333313,122.9248734,
0.01750000194,122.095253,
0.01916666701,122.9596786,
0.02083333395,123.8281403,
0.02250000089,122.5729752,
0.02416666783,123.4643402,
0.02583333477,123.4655151,
0.02749999985,123.69133,
0.02916666679,122.9615707,
0.03083333373,122.1474533,
0.03250000253,122.7575684,
0.03416666761,124.2716293,
0.03583333641,122.0625229,
0.03750000149,122.4023209,
0.03916667029,123.5886612,
0.04083333537,122.2454834,
0.04250000045,123.3057556,
0.04416666925,123.4655457,
0.04583333433,123.6414948,
0.04750000313,122.3321838,
0.04916666821,123.3676147,
0.05083333328,122.3121033,
0.05250000209,122.5124741,
0.05416666716,123.1595306,
0.05583333597,122.9583664,
0.05750000104,122.645401,
0.05916666612,122.1791534,
0.06083333492,121.7987595,
0.0625,121.5738373,
0.06416667253,123.3513489,
0.0658333376,122.5796509,
0.06750000268,123.6698227,
0.06916666776,122.4524078,
0.07083333284,122.1333237,
0.07249999791,122.3704681,
0.07416667044,124.9742889,
0.07583333552,126.2115402,
0.0775000006,125.4105301,
0.07916666567,122.9255142,
0.08083333075,124.2094574,
0.08250000328,126.3527985,
0.08416666836,125.9721069,
0.08583333343,124.5304794,
0.08749999851,123.7005234,
0.08916666359,125.1744308,
0.09083333611,123.6224976,
0.09250000119,123.7827759,
0.09416666627,124.116394,
0.09583333135,124.4385834,
0.09749999642,122.4713058,
0.09916666895,124.2982712,
0.100833334,125.173378,
0.1024999991,123.7145309,
0.1041666642,124.5937195,
0.1058333293,121.9950562,
0.1075000018,123.9234619,
0.1091666669,123.7508087,
0.1108333319,122.9367218,
0.112499997,124.4400864,
0.1141666621,122.5329361,
0.1158333346,122.6725388,
0.1174999997,122.7543564,
0.1191666648,121.8688736,
0.1208333299,121.8457184,
0.1224999949,123.5666809,
0.1241666749,121.4332581,
0.1258333325,121.4248123,
0.1274999976,121.7243347,
0.1291666627,123.1898499,
0.1308333278,123.6519699,
0.1325000077,122.3371124,
0.1341666728,123.0684967,
0.1358333379,125.2789764,
0.137500003,122.7976379,
0.1391666681,123.9397659,
0.1408333331,123.741478,
0.1424999982,123.9172058,
0.1441666782,121.9816132,
0.1458333284,125.4416885,
0.1475000083,124.014801,
0.1491666585,123.6012115,
0.1508333385,123.8343887,
0.1525000036,122.7887878,
0.1541666687,122.0925446,
0.1558333337,123.3757782,
0.1574999988,123.143158,
0.1591666639,122.2455292,
0.1608333439,124.3779221,
0.162499994,123.6703796,
0.164166674,123.0818405,
0.1658333242,123.1859512,
0.1675000042,121.8374939,
0.1691666692,123.2556305,
0.1708333343,123.3008804,
0.1724999994,123.0364151,
0.1741666645,121.4613571,
0.1758333296,123.1204071,
0.1775000095,123.4586258,
0.1791666597,121.5679321,
0.1808333397,122.2308273,
0.1824999899,122.1078568,
0.1841666698,123.8279343,
0.1858333498,123.072937,
0.1875,122.8263702,
0.18916668,123.1848984,
0.1908333302,123.6149979,
0.1925000101,123.3951721,
0.1941666752,122.9575272,
0.1958333403,122.4480591,
0.1975000054,123.0150757,
0.1991666704,122.2887115,
0.2008333355,123.1888657,
0.2025000155,123.8097153,
0.2041666657,123.2329483,
0.2058333457,124.2832413,
0.2074999958,122.0025787,
0.2091666758,121.3792343,
0.2108333409,123.5921402,
0.212500006,123.0644302,
0.214166671,122.3681488,
0.2158333361,122.5589523,
0.2175000012,123.3429871,
0.2191666812,122.4236832,
0.2208333313,123.1421967,
0.2225000113,122.6439667,
0.2241666615,123.9586411,
0.2258333415,121.9150848,
0.2275000066,123.580513,
0.2291666716,123.9457626,
0.2308333367,123.5643005,
0.2325000018,123.2767334,
0.2341666669,123.7459717,
0.2358333468,124.206665,
0.237499997,122.9247513,
0.239166677,123.362175,
0.2408333272,124.6790161,
0.2425000072,122.5436401,
0.2441666722,122.6534195,
0.2458333373,123.2341461,
0.2475000024,124.7729187,
0.2491666675,125.3354416,
0.2508333325,125.494194,
0.2524999976,123.7646408,
0.2541666627,123.7156067,
0.2558333278,122.0170517,
0.2574999928,122.5824203,
0.2591666579,121.2945709,
0.2608333528,122.8449554,
0.2624999881,121.8117447,
0.264166683,123.0309448,
0.2658333182,122.2679214,
0.2675000131,122.9921722,
0.2691666484,121.8155212,
0.2708333433,122.4643478,
0.2725000083,123.6951523,
0.2741666734,123.2448273,
0.2758333385,122.7793808,
0.2775000036,123.9794617,
0.2791666687,124.1196671,
0.2808333337,123.7472992,
0.2824999988,125.470192,
0.2841666937,123.2579651,
0.285833329,122.7173462,
0.287499994,122.9778824,
0.2891666591,121.9287949,
0.290833354,123.3210526,
0.2925000191,122.7842636,
0.2941666543,124.3587036,
0.2958333194,124.6611557,
0.2975000143,123.295929,
0.2991666794,126.582283,
0.3008333445,122.7210388,
0.3024999797,122.5988922,
0.3041666746,124.6527634,
0.3058333397,125.1943893,
0.3075000048,123.6722565,
0.3091666996,123.8184814,
0.3108333349,123.7293625,
0.3125,123.7918701,
0.3141666651,121.8882141,
0.31583336,123.4509277,
0.317500025,122.5940094,
0.3191666603,123.6077576,
0.3208333254,123.4983444,
0.3225000203,122.7173767,
0.3241666853,124.4491577,
0.3258333504,123.6375275,
0.3274999857,123.3039932,
0.3291666806,123.6359711,
0.3308333457,123.8886032,
0.3325000107,123.3179321,
0.3341666758,123.4821854,
0.3358333409,123.2428055,
0.337500006,123.8340759,
0.339166671,122.6158524,
0.3408333361,123.6874084,
0.342500031,122.4130783,
0.3441666663,122.7048187,
0.3458333313,122.7337494,
0.3474999964,122.1571655,
0.3491666913,122.1844482,
0.3508333564,122.8890839,
0.3524999917,121.3436966,
0.3541666567,124.3171997,
0.3558333516,123.8847122,
0.3575000167,123.7016907,
0.3591666818,122.8670578,
0.360833317,122.7452545,
0.3625000119,122.4571838,
0.364166677,122.3526611,
0.3658333421,123.6474609,
0.3675000072,124.4959946,
0.3691666722,123.120224,
0.3708333373,122.2313232,
0.3725000024,123.4049225,
0.3741666675,124.2221146,
0.3758333623,124.4610596,
0.3774999976,124.3837967,
0.3791666627,123.4181671,
0.3808333278,123.2596359,
0.3825000226,122.2638779,
0.3841666877,123.4886169,
0.385833323,122.6481552,
0.3874999881,124.8642578,
0.389166683,123.2131729,
0.390833348,124.5682602,
0.3925000131,122.3910599,
0.3941666484,123.5853348,
0.3958333433,123.1567383,
0.3975000083,122.202034,
0.3991666734,122.2757721,
0.4008333385,123.9591599,
0.4025000036,123.6250153,
0.4041666687,122.4289169,
0.4058333337,123.040123,
0.4074999988,123.5490036,
0.4091666937,123.4386597,
0.410833329,123.6988525,
0.412499994,122.4544907,
0.4141666591,124.4525528,
0.415833354,123.3425598,
0.4175000191,122.5769653,
0.4191666543,124.2359772,
0.4208333194,122.7401276,
0.4225000143,122.917984,
0.4241666794,122.937294,
0.4258333445,122.7768784,
0.4274999797,122.9111481,
0.4291666746,120.7809143,
0.4308333397,123.2163391,
0.4325000048,122.7430954,
0.4341666996,121.8309937,
0.4358333349,121.6029205,
0.4375,121.9452209,
0.4391666651,123.0247879,
0.44083336,122.4777756,
0.442500025,122.1447144,
0.4441666603,122.4308243,
0.4458333254,121.0016022,
0.4475000203,121.5257492,
0.4491666853,122.3331757,
0.4508333504,122.9423141,
0.4524999857,123.4148483,
0.4541666806,122.5142365,
0.4558333457,123.116394,
0.4575000107,122.2958679,
0.4591666758,123.1031799,
0.4608333409,123.1156998,
0.462500006,121.8285065,
0.464166671,121.2740555,
0.4658333361,122.7087936,
0.467500031,123.4029083,
0.4691666663,123.3545532,
0.4708333313,121.7947083,
0.4724999964,122.9519577,
0.4741666913,123.3058014,
0.4758333564,123.554657,
0.4774999917,122.1800003,
0.4791666567,123.053627,
0.4808333516,123.4937363,
0.4825000167,122.617012,
0.4841666818,122.8329697,
0.485833317,124.9873886,
0.4875000119,123.0273285,
0.489166677,122.6296692,
0.4908333421,122.0246735,
0.4925000072,123.3901596,
0.4941666722,124.6220322,
0.4958333373,123.6336975,
0.4975000024,122.4917374,
0.4991666675,123.6962509,
0.5008333325,121.2272797,
0.5024999976,122.1579361,
0.5041666627,123.4895401,
0.5058333278,122.5161819,
0.5074999928,123.391655,
0.5091666579,123.7284317,
0.510833323,122.5059204,
0.5124999881,122.5922394,
0.5141666532,122.9367294,
0.5158333182,122.5225296,
0.5175000429,123.5388184,
0.5191666484,122.3525467,
0.5208333135,123.658989,
0.5224999785,124.1588898,
0.5241667032,124.5005722,
0.5258333683,124.5622787,
0.5274999738,122.7591095,
0.5291666389,122.8175888,
0.5308333635,122.4238815,
0.5325000286,122.6172256,
0.5341666341,122.6622925,
0.5358333588,122.9898224,
0.5375000238,122.1187897,
0.5391666889,122.9141388,
0.540833354,123.8163986,
0.5424999595,123.4032135,
0.5441666842,122.0383224,
0.5458333492,122.2861404,
0.5475000143,121.9427719,
0.5491666794,122.5731812,
0.5508333445,121.8635178,
0.5525000095,123.2187805,
0.5541666746,123.1505356,
0.5558333993,121.9422226,
0.5575000048,124.2743988,
0.5591666698,124.3694229,
0.5608333349,122.293045,
0.5625,123.9561539,
0.5641667247,123.4165192,
0.5658333302,123.5576553,
0.5674999952,122.5704193,
0.5691667199,122.6761398,
0.5708333254,122.4461365,
0.5725000501,123.5298462,
0.5741666555,122.7434464,
0.5758333206,121.8690567,
0.5775000453,123.4982986,
0.5791666508,121.720108,
0.5808333755,122.6871033,
0.5825000405,122.1250458,
0.584166646,122.7373581,
0.5858333707,122.8470535,
0.5874999762,121.9832001,
0.5891667008,123.8867722,
0.5908333659,123.911438,
0.5924999714,123.459343,
0.5941666961,123.4133606,
0.5958333611,122.5407639,
0.5975000262,122.6333771,
0.5991666913,122.8485107,
0.6008332968,122.7149734,
0.6025000215,122.0092697,
0.6041666865,122.448204,
0.6058333516,121.6484756,
0.6075000167,121.2967148,
0.6091666818,121.4729462,
0.6108333468,122.077713,
0.6125000119,122.1407089,
0.614166677,121.6182175,
0.6158333421,120.9025421,
0.6175000072,122.4912033,
0.6191666722,122.2642822,
0.6208333373,121.3521271,
0.622500062,122.1929016,
0.6241666675,121.81353,
0.6258333325,121.2985764,
0.6274999976,122.4185486,
0.6291666627,122.5379181,
0.6308333874,121.239212,
0.6324999928,123.9469299,
0.6341666579,122.9167175,
0.6358333826,122.2598114,
0.6374999881,123.9464569,
0.6391667128,120.8666534,
0.6408333182,122.5038223,
0.6424999833,122.0311203,
0.644166708,122.513916,
0.6458333135,123.087326,
0.6475000381,123.0709763,
0.6491667032,123.3775711,
0.6508333087,124.309906,
0.6525000334,122.2690964,
0.6541666389,123.0295029,
0.6558333635,122.5417328,
0.6575000286,121.9509125,
0.6591666341,122.6181488,
0.6608333588,123.2702332,
0.6625000238,123.1749039,
0.6641666889,122.430603,
0.665833354,124.231369,
0.6674999595,122.4278793,
0.6691666842,123.3064499,
0.6708333492,121.3035049,
0.6725000143,122.3065109,
0.6741666794,122.5544739,
0.6758333445,122.4819565,
0.6775000095,123.1244583,
0.6791666746,122.233284,
0.6808333993,122.3025665,
0.6825000048,122.2933731,
0.6841666698,122.873764,
0.6858333349,123.2434921,
0.6875,122.5214081,
0.6891667247,123.0872192,
0.6908333302,122.4601669,
0.6924999952,122.4770508,
0.6941667199,121.9056931,
0.6958333254,123.0791473,
0.6975000501,122.7576828,
0.6991666555,121.8951874,
0.7008333206,122.7230911,
0.7025000453,121.1240845,
0.7041666508,121.597374,
0.7058333755,122.3477859,
0.7075000405,123.7189331,
0.709166646,121.3057175,
0.7108333707,121.745842,
0.7124999762,122.6687393,
0.7141667008,122.7002029,
0.7158333659,122.3189163,
0.7174999714,121.8065186,
0.7191666961,123.9103317,
0.7208333611,122.6076279,
0.7225000262,122.8736038,
0.7241666913,122.6260834,
0.7258332968,123.4884415,
0.7275000215,122.7706223,
0.7291666865,121.6957855,
0.7308333516,122.8957977,
0.7325000167,122.51548,
0.7341666818,123.29776,
0.7358333468,122.8124542,
0.7375000119,121.5692825,
0.739166677,122.9087296,
0.7408333421,123.0743179,
0.7425000072,121.8490295,
0.7441666722,122.3217621,
0.7458333373,122.0528107,
0.747500062,121.186203,
0.7491666675,123.4174957,
0.7508333325,122.272789,
0.7524999976,122.512001,
0.7541666627,122.5779648,
0.7558333874,122.1739655,
0.7574999928,122.8542328,
0.7591666579,123.1507416,
0.7608333826,122.3988113,
0.7624999881,122.1943054,
0.7641667128,121.8011475,
0.7658333182,121.7176514,
0.7674999833,122.1186066,
0.769166708,122.8174667,
0.7708333135,122.1811829,
0.7725000381,123.3771667,
0.7741667032,123.0216751,
0.7758333087,122.7056198,
0.7775000334,123.0985336,
0.7791666389,121.3058319,
0.7808333635,123.0384903,
0.7825000286,122.9062729,
0.7841666341,121.2679367,
0.7858333588,122.703476,
0.7875000238,120.9749069,
0.7891666889,121.3416595,
0.790833354,123.9393082,
0.7924999595,123.2359467,
0.7941666842,123.1419678,
0.7958333492,122.8891983,
0.7975000143,124.4796677,
0.7991666794,122.3082275,
0.8008333445,122.2433167,
0.8025000095,122.1130676,
0.8041666746,121.5258331,
0.8058333993,122.7494431,
0.8075000048,122.2647018,
0.8091666698,123.2218628,
0.8108333349,123.4442291,
0.8125,121.6057739,
0.8141667247,123.3326035,
0.8158333302,122.3786316,
0.8174999952,124.7728882,
0.8191667199,121.7412262,
0.8208333254,122.0726776,
0.8225000501,122.6386108,
0.8241666555,121.89991,
0.8258333206,123.3404846,
0.8275000453,122.5283279,
0.8291666508,122.8408203,
0.8308333755,122.1417313,
0.8325000405,121.2507782,
0.834166646,123.9459229,
0.8358333707,121.6156082,
0.8374999762,122.4627686,
0.8391667008,121.491272,
0.8408333659,121.368248,
0.8424999714,123.9730225,
0.8441666961,123.3225021,
0.8458333611,122.6000443,
0.8475000262,121.6951065,
0.8491666913,121.5221176,
0.8508332968,122.1826859,
0.8525000215,122.6601563,
0.8541666865,121.1758347,
0.8558333516,122.8518066,
0.8575000167,121.6506271,
0.8591666818,122.5856247,
0.8608333468,122.6167221,
0.8625000119,121.0679855,
0.864166677,121.9776306,
0.8658333421,123.3546753,
0.8675000072,122.5529709,
0.8691666722,122.6138611,
0.8708333373,122.5885391,
0.872500062,121.4406357,
0.8741666675,122.4375687,
0.8758333325,122.4477005,
0.8774999976,122.2793045,
0.8791666627,123.2818222,
0.8808333874,123.212265,
0.8824999928,123.6244125,
0.8841666579,122.7488403,
0.8858333826,122.1438675,
0.8874999881,122.2281189,
0.8891667128,122.5198059,
0.8908333182,122.6967163,
0.8924999833,122.0062561,
0.894166708,122.591713,
0.8958333135,122.0825348,
0.8975000381,123.5334854,
0.8991667032,121.268074,
0.9008333087,123.2426605,
0.9025000334,122.7892227,
0.9041666389,123.5018082,
0.9058333635,122.9859161,
0.9075000286,124.2297211,
0.9091666341,122.3117828,
0.9108333588,123.6598587,
0.9125000238,121.7277908,
0.9141666889,122.5759354,
0.915833354,122.8733063,
0.9174999595,122.5128555,
0.9191666842,123.2375183,
0.9208333492,121.9708862,
0.9225000143,124.515358,
0.9241666794,123.8703842,
0.9258333445,122.9587402,
0.9275000095,122.0569687,
0.9291666746,122.8112564,
0.9308333993,122.9000778,
0.9325000048,122.2630768,
0.9341666698,121.2349243,
0.9358333349,123.1806335,
0.9375,123.5836868,
0.9391667247,122.9441147,
0.9408333302,123.3206635,
0.9424999952,122.4653244,
0.9441667199,122.7636185,
0.9458333254,123.6457901,
0.9475000501,122.4956818,
0.9491666555,122.4902725,
0.9508333206,122.7521515,
0.9525000453,121.5378723,
0.9541666508,121.958107,
0.9558333755,123.7968369,
0.9575000405,123.4196854,
0.959166646,122.3738785,
0.9608333707,122.1659927,
0.9624999762,122.1571045,
0.9641667008,122.7172699,
0.9658333659,122.3238983,
0.9674999714,124.4867401,
0.9691666961,122.565834,
0.9708333611,122.103096,
0.9725000262,123.1290283,
0.9741666913,122.0297852,
0.9758332968,122.6812592,
0.9775000215,121.8105011,
0.9791666865,122.5454178,
0.9808333516,122.2466507,
0.9825000167,123.1165466,
0.9841666818,121.8937378,
0.9858333468,122.8466797,
0.9875000119,122.8492584,
0.989166677,121.9515305,
0.9908333421,122.5051422,
0.9925000072,121.7758026,
0.9941666722,121.2724915,
0.9958333373,122.6510391,
0.997500062,122.7076187,
0.9991666675,122.9999771,
1.000833273,122.8091507,
1.002500057,122.579895,
1.004166722,122.2878036,
1.005833387,122.8922348,
1.007500052,122.3181915,
1.009166598,122.7437592,
1.010833383,122.2328491,
1.012500048,122.4945526,
1.014166713,123.9857254,
1.015833378,121.7526703,
1.017500043,123.2194214,
1.019166708,123.8212585,
1.020833373,122.4133682,
1.022500038,122.0947418,
1.024166703,123.5220337,
1.025833368,123.5671082,
1.027500033,121.70961,
1.029166698,122.2467346,
1.030833364,120.6346283,
1.032500029,123.3375702,
1.034166694,121.6042175,
1.035833359,121.216301,
1.037500024,122.1331253,
1.039166689,121.4464493,
1.040833354,115.3215256,
1.042500019,106.4036255,
1.044166684,102.0802231,
1.045833349,116.3491364,
1.047500014,114.2353973,
1.049166679,115.6765518,
1.050833344,117.3159637,
1.05250001,114.3844147,
1.054166675,107.5596924,
1.05583334,116.8068237,
1.057500005,110.4742966,
1.05916667,104.86689,
1.060833335,117.4540024,
1.0625,118.3228607,
1.064166665,118.0224075,
1.06583333,117.1063309,
1.067499995,116.9836578,
1.06916666,116.7165222,
1.070833325,117.545433,
1.07249999,116.3144836,
1.074166775,114.9696121,
1.07583344,115.7065735,
1.077499986,115.639389,
1.079166651,115.6935883,
1.080833316,114.4470596,
1.0825001,113.612175,
1.084166765,113.8728104,
1.085833311,114.2090759,
1.087499976,114.4477921,
1.089166641,112.6004868,
1.090833426,113.5208359,
1.092500091,113.2211456,
1.094166636,113.2510452,
1.095833302,113.0054092,
1.097499967,111.4445953,
1.099166751,112.1019669,
1.100833416,111.1865616,
1.102500081,111.7036667,
1.104166627,111.2272034,
1.105833292,110.5977402,
1.107500076,110.5522614,
1.109166741,110.2437515,
1.110833406,110.1545258,
1.112499952,111.2911072,
1.114166617,110.0460815,
1.115833402,110.443634,
1.117500067,110.2933426,
1.119166732,108.7178345,
1.120833278,109.5502396,
1.122499943,109.8031464,
1.124166727,109.0724792,
1.125833392,109.703743,
1.127500057,109.7544022,
1.129166722,108.5992584,
1.130833268,109.2917633,
1.132500052,108.1330109,
1.134166718,108.5763702,
1.135833383,108.4310684,
1.137500048,107.3390198,
1.139166594,106.7071609,
1.140833378,107.3019638,
1.142500043,108.7439041,
1.144166708,107.413063,
1.145833373,106.5860748,
1.147499919,106.6937027,
1.149166703,105.7812119,
1.150833368,106.5567932,
1.152500033,107.0154953,
1.154166698,106.3978424,
1.155833364,107.1939545,
1.157500029,107.2653732,
1.159166694,105.8079529,
1.160833359,106.3076096,
1.162500024,105.8444595,
1.164166689,105.1625443,
1.165833354,104.7596664,
1.167500019,105.5079422,
1.169166684,104.7631073,
1.170833349,104.7855225,
1.172500014,105.8672943,
1.174166799,105.8792496,
1.175833344,104.4159088,
1.17750001,104.7298813,
1.179166675,104.4943619,
1.18083334,104.6993103,
1.182500124,104.8078384,
1.18416667,104.0184708,
1.185833335,104.5757446,
1.1875,103.8413849,
1.189166665,103.6884384,
1.190833449,104.139946,
1.192499995,104.1729202,
1.19416666,103.5113068,
1.195833325,103.199913,
1.19749999,103.9948578,
1.199166775,103.855545,
1.20083344,103.4639282,
1.202499986,104.353981,
1.204166651,103.7464142,
1.205833316,104.063591,
1.2075001,104.3168793,
1.209166765,102.1176987,
1.210833311,103.2393341,
1.212499976,104.1009903,
1.214166641,101.6633301,
1.215833426,103.5230255,
1.217500091,101.8751068,
1.219166636,102.0593491,
1.220833302,102.6211548,
1.222499967,102.0899811,
1.224166751,101.468544,
1.225833416,102.5689697,
1.227500081,102.4050598,
1.229166627,102.8524933,
1.230833292,101.0166473,
1.232500076,101.528656,
1.234166741,103.1158981,
1.235833406,101.2723465,
1.237499952,101.5322647,
1.239166617,101.8128662,
1.240833402,101.3963699,
1.242500067,100.8413849,
1.244166732,100.6521759,
1.245833278,101.7667236,
1.247499943,101.8940125,
1.249166727,100.4020538,
1.250833392,100.7059174,
1.252500057,101.5208817,
1.254166722,101.3830566,
1.255833268,99.76819611,
1.257500052,100.2659607,
1.259166718,100.5741196,
1.260833383,100.894928,
1.262500048,100.8203659,
1.264166594,99.37084198,
1.265833378,100.6313477,
1.267500043,99.63237,
1.269166708,99.91065979,
1.270833373,99.51425934,
1.272499919,99.93595123,
1.274166703,99.72489929,
1.275833368,99.98958588,
1.277500033,100.6679993,
1.279166698,100.0879135,
1.280833364,100.6551361,
1.282500029,99.55693054,
1.284166694,99.0326767,
1.285833359,99.19377136,
1.287500024,100.6051483,
1.289166689,99.83557129,
1.290833354,99.89555359,
1.292500019,98.85183716,
1.294166684,100.0211105,
1.295833349,99.82527161,
1.297500014,99.72229767,
1.299166799,99.68027496,
1.300833344,99.2460556,
1.30250001,99.59822845,
1.304166675,100.1513672,
1.30583334,99.82173157,
1.307500124,100.1537628,
1.30916667,98.66221619,
1.310833335,99.6158371,
1.3125,98.47212982,
1.314166665,98.67209625,
1.315833449,99.32363892,
1.317499995,99.38092804,
1.31916666,99.60688019,
1.320833325,98.06020355,
1.32249999,98.52848053,
1.324166775,97.92546844,
1.32583344,98.33489227,
1.327499986,98.93251801,
1.329166651,100.1887665,
1.330833316,99.13743591,
1.3325001,99.7280426,
1.334166765,98.03529358,
1.335833311,99.06699371,
1.337499976,98.29057312,
1.339166641,97.87010956,
1.340833426,98.47351837,
1.342500091,98.55635071,
1.344166636,99.04006958,
1.345833302,97.91189575,
1.347499967,98.65882874,
1.349166751,99.17990875,
1.350833416,97.66101074,
1.352500081,98.86128998,
1.354166627,97.24822998,
1.355833292,98.31415558,
1.357500076,98.63536072,
1.359166741,97.77920532,
1.360833406,96.68677521,
1.362499952,98.73725891,
1.364166617,98.36630249,
1.365833402,98.16604614,
1.367500067,98.33797455,
1.369166732,96.70650482,
1.370833278,98.93815613,
1.372499943,98.39117432,
1.374166727,97.96047974,
1.375833392,98.3670578,
1.377500057,97.6264267,
1.379166722,97.11278534,
1.380833268,97.51512146,
1.382500052,97.41145325,
1.384166718,98.44812775,
1.385833383,98.20603943,
1.387500048,97.63011932,
1.389166594,98.37753296,
1.390833378,96.37166595,
1.392500043,97.51433563,
1.394166708,97.61071014,
1.395833373,96.21107483,
1.397499919,98.39437866,
1.399166703,96.73930359,
1.400833368,97.93271637,
1.402500033,96.46968842,
1.404166698,97.74064636,
1.405833364,97.03275299,
1.407500029,97.9822998,
1.409166694,99.22758484,
1.410833359,97.97521973,
1.412500024,97.56715393,
1.414166689,96.5480957,
1.415833354,97.02451324,
1.417500019,96.76302338,
1.419166684,97.83627319,
1.420833349,98.24224854,
1.422500014,97.14583588,
1.424166799,96.56429291,
1.425833344,96.83518219,
1.42750001,96.82531738,
1.429166675,97.25313568,
1.43083334,97.6739502,
1.432500124,97.17884064,
1.43416667,97.038414,
1.435833335,96.87324524,
1.4375,96.78547668,
1.439166665,98.07997131,
1.440833449,96.93178558,
1.442499995,97.6832428,
1.44416666,96.7567215,
1.445833325,95.81535339,
1.44749999,96.2627182,
1.449166775,95.80419159,
1.45083344,96.05971527,
1.452499986,95.11445618,
1.454166651,96.36283112,
1.455833316,97.34805298,
1.4575001,96.52378082,
1.459166765,96.11362457,
1.460833311,96.13239288,
1.462499976,97.5079422,
1.464166641,97.52664948,
1.465833426,95.56774902,
1.467500091,95.95679474,
1.469166636,96.72055054,
1.470833302,97.07505035,
1.472499967,96.78473663,
1.474166751,96.42442322,
1.475833416,96.64148712,
1.477500081,95.39485931,
1.479166627,96.88331604,
1.480833292,95.81731415,
1.482500076,96.63710022,
1.484166741,94.69411469,
1.485833406,96.42734528,
1.487499952,96.73305511,
1.489166617,96.61755371,
1.490833402,96.40117645,
1.492500067,95.71764374,
1.494166732,96.53785706,
1.495833278,96.16838074,
1.497499943,98.29525757,
1.499166727,95.6383667,
1.500833392,95.0005722,
1.502500057,95.51267242,
1.504166722,96.16734314,
1.505833268,96.86816406,
1.507500052,96.05580139,
1.509166718,95.56595612,
1.510833383,97.68787384,
1.512500048,96.08623505,
1.514166594,95.78705597,
1.515833378,95.73775482,
1.517500043,95.22975159,
1.519166708,95.75760651,
1.520833373,97.07006073,
1.522499919,97.33544159,
1.524166703,95.46912384,
1.525833368,95.22995758,
1.527500033,95.36329651,
1.529166698,96.1251297,
1.530833364,95.86663055,
1.532500029,94.51948547,
1.534166694,95.34103394,
1.535833359,95.99793243,
1.537500024,96.03692627,
1.539166689,96.26329803,
1.540833354,96.08644104,
1.542500019,95.37788391,
1.544166684,96.67497253,
1.545833349,95.75655365,
1.547500014,95.30166626,
1.549166799,95.86507416,
1.550833344,96.06273651,
1.55250001,95.97504425,
1.554166675,96.1525116,
1.55583334,95.23429108,
1.557500124,94.62904358,
1.55916667,95.74369812,
1.560833335,95.88261414,
1.5625,95.46591949,
1.564166665,95.50724792,
1.565833449,95.3068924,
1.567499995,96.06885529,
1.56916666,95.15400696,
1.570833325,94.71627045,
1.57249999,95.06924438,
1.574166775,95.72332001,
1.57583344,96.10369873,
1.577499986,95.09088135,
1.579166651,95.46376038,
1.580833316,95.81231689,
1.5825001,95.35775757,
1.584166765,94.99118042,
1.585833311,94.6631012,
1.587499976,96.11962891,
1.589166641,95.10302734,
1.590833426,94.48467255,
1.592500091,94.63240814,
1.594166636,95.69010925,
1.595833302,94.92116547,
1.597499967,94.68128967,
1.599166751,94.918396,
1.600833416,95.00115967,
1.602500081,93.94245148,
1.604166627,94.56658173,
1.605833292,94.69717407,
1.607500076,95.56439209,
1.609166741,95.10869598,
1.610833406,95.11214447,
1.612499952,94.48152161,
1.614166617,95.08798981,
1.615833402,94.09783173,
1.617500067,94.34487152,
1.619166732,94.84048462,
1.620833278,94.17015076,
1.622499943,94.99749756,
1.624166727,94.97467041,
1.625833392,93.67546844,
1.627500057,95.07073212,
1.629166722,95.2322998,
1.630833268,95.33937073,
1.632500052,93.95046234,
1.634166718,94.18425751,
1.635833383,94.47550964,
1.637500048,94.40680695,
1.639166594,94.6153717,
1.640833378,93.81085205,
1.642500043,94.39311981,
1.644166708,95.35719299,
1.645833373,94.40625,
1.647499919,95.4986496,
1.649166703,94.14723206,
1.650833368,94.15477753,
1.652500033,94.70796204,
1.654166698,93.63624573,
1.655833364,94.16860199,
1.657500029,93.85646057,
1.659166694,95.22603607,
1.660833359,94.36830902,
1.662500024,95.23840332,
1.664166689,94.47711945,
1.665833354,94.29292297,
1.667500019,95.04087067,
1.669166684,95.21531677,
1.670833349,95.59407806,
1.672500014,95.02616882,
1.674166799,93.65316772,
1.675833344,95.81641388,
1.67750001,94.48449707,
1.679166675,95.62202454,
1.68083334,93.98386383,
1.682500124,94.80281067,
1.68416667,94.68332672,
1.685833335,94.75340271,
1.6875,94.68783569,
1.689166665,94.33506012,
1.690833449,95.4706955,
1.692499995,95.194664,
1.69416666,94.89863586,
1.695833325,94.43634796,
1.69749999,93.83433533,
1.699166775,95.28012848,
1.70083344,94.9655304,
1.702499986,94.95276642,
1.704166651,94.43557739,
1.705833316,94.12329102,
1.7075001,94.82035828,
1.709166765,94.6325531,
1.710833311,94.32745361,
1.712499976,94.02536011,
1.714166641,94.54925537,
1.715833426,93.08480835,
1.717500091,94.34979248,
1.719166636,94.51693726,
1.720833302,94.21111298,
1.722499967,93.92077637,
1.724166751,94.93440247,
1.725833416,94.95710754,
1.727500081,93.82688904,
1.729166627,95.00068665,
1.730833292,94.86151123,
1.732500076,94.42409515,
1.734166741,93.37838745,
1.735833406,94.56954193,
1.737499952,95.5274353,
1.739166617,94.7914505,
1.740833402,94.65581512,
1.742500067,93.87588501,
1.744166732,95.19552612,
1.745833278,93.12073517,
1.747499943,94.96185303,
1.749166727,94.60758972,
1.750833392,93.95748138,
1.752500057,93.82924652,
1.754166722,93.93379211,
1.755833268,93.41148376,
1.757500052,94.50601959,
1.759166718,94.97633362,
1.760833383,93.67411041,
1.762500048,92.70077515,
1.764166594,93.83110046,
1.765833378,93.98337555,
1.767500043,95.00839233,
1.769166708,94.70043182,
1.770833373,94.01770782,
1.772499919,94.8454361,
1.774166703,93.18125916,
1.775833368,93.81610107,
1.777500033,94.39092255,
1.779166698,94.13165283,
1.780833364,94.04649353,
1.782500029,93.84727478,
1.784166694,94.33312225,
1.785833359,93.91162872,
1.787500024,94.37659454,
1.789166689,93.49523163,
1.790833354,93.71011353,
1.792500019,94.72079468,
1.794166684,94.36184692,
1.795833349,93.65278625,
1.797500014,93.6519928,
1.799166799,94.01191711,
1.800833344,95.09289551,
1.80250001,94.35860443,
1.804166675,93.43984985,
1.80583334,93.58616638,
1.807500124,93.84046936,
1.80916667,95.0031662,
1.810833335,93.9730835,
1.8125,93.65316772,
1.814166665,93.65629578,
1.815833449,92.64978027,
1.817499995,93.78540802,
1.81916666,93.97943115,
1.820833325,92.65325165,
1.82249999,94.57661438,
1.824166775,94.46872711,
1.82583344,93.57250214,
1.827499986,93.6986618,
1.829166651,94.32695007,
1.830833316,93.85636139,
1.8325001,94.12810516,
1.834166765,94.03102875,
1.835833311,93.75925446,
1.837499976,94.02584839,
1.839166641,93.98699951,
1.840833426,94.7292099,
1.842500091,93.1483078,
1.844166636,94.22009277,
1.845833302,92.7364502,
1.847499967,93.66222382,
1.849166751,93.50570679,
1.850833416,92.80027008,
1.852500081,92.73799133,
1.854166627,93.62374115,
1.855833292,94.02747345,
1.857500076,92.96472931,
1.859166741,93.47852325,
1.860833406,93.69761658,
1.862499952,93.91374969,
1.864166617,93.68628693,
1.865833402,93.6605835,
1.867500067,93.79331207,
1.869166732,93.50001526,
1.870833278,93.41846466,
1.872499943,93.48999786,
1.874166727,93.07173157,
1.875833392,93.15856934,
1.877500057,94.41299438,
1.879166722,93.90345764,
1.880833268,94.09351349,
1.882500052,93.98364258,
1.884166718,94.24512482,
1.885833383,93.28682709,
1.887500048,93.18225098,
1.889166594,94.10031891,
1.890833378,93.67107391,
1.892500043,94.12542725,
1.894166708,93.01657104,
1.895833373,94.27150726,
1.897499919,93.25263214,
1.899166703,93.46684265,
1.900833368,93.68667603,
1.902500033,93.51064301,
1.904166698,94.69025421,
1.905833364,94.04701996,
1.907500029,93.27201843,
1.909166694,92.57542419,
1.910833359,94.07439423,
1.912500024,94.28988647,
1.914166689,94.05706024,
1.915833354,93.93689728,
1.917500019,93.08239746,
1.919166684,93.15077209,
1.920833349,93.59100342,
1.922500014,92.55571747,
1.924166799,93.90416718,
1.925833344,93.90668488,
1.92750001,93.96979523,
1.929166675,93.79174805,
1.93083334,93.6466217,
1.932500124,92.67855072,
1.93416667,93.24959564,
1.935833335,93.65803528,
1.9375,93.25408936,
1.939166665,92.96639252,
1.940833449,93.91877747,
1.942499995,92.28278351,
1.94416666,93.97847748,
1.945833325,93.90266418,
1.94749999,93.84223938,
1.949166775,93.86878967,
1.95083344,92.1410675,
1.952499986,92.5378418,
1.954166651,92.91625977,
1.955833316,92.2779541,
1.9575001,92.39376831,
1.959166765,93.27870941,
1.960833311,92.28818512,
1.962499976,94.84170532,
1.964166641,93.44474792,
1.965833426,93.1344223,
1.967500091,93.90931702,
1.969166636,92.87705994,
1.970833302,92.61938477,
1.972499967,93.19927979,
1.974166751,92.20337677,
1.975833416,93.40565491,
1.977500081,93.19224548,
1.979166627,93.0221405,
1.980833292,92.96924591,
1.982500076,92.36074829,
1.984166741,92.73955536,
1.985833406,93.26004028,
1.987499952,93.2363739,
1.989166617,93.61199951,
1.990833402,93.21528625,
1.992500067,92.28569794,
1.994166732,92.61193085,
1.995833278,92.6834259,
1.997499943,92.59783173,
1.999166727,92.83399963,
2.000833273,93.47653961,
2.002500057,92.494133,
2.004166603,94.75291443,
2.005833387,93.57245636,
2.007500172,93.15557098,
2.009166718,92.6199646,
2.010833263,93.11120605,
2.012500048,92.22072601,
2.014166594,92.29946899,
2.015833378,93.78940582,
2.017500162,91.91490936,
2.019166708,91.8745575,
2.020833254,92.24315643,
2.022500038,92.66859436,
2.024166822,93.70262909,
2.025833368,92.57405853,
2.027499914,92.62156677,
2.029166698,93.25273895,
2.030833244,93.61686707,
2.032500029,93.81224823,
2.034166813,93.29711914,
2.035833359,92.57803345,
2.037499905,93.89159393,
2.039166689,93.18630981,
2.040833473,93.01506042,
2.042500019,92.56977844,
2.044166803,92.46793365,
2.045833349,92.99521637,
2.047499895,92.57951355,
2.049166679,91.78329468,
2.050833464,92.86483765,
2.05250001,92.79629517,
2.054166555,92.91572571,
2.05583334,92.2687912,
2.057500124,93.52266693,
2.05916667,92.51829529,
2.060833454,93.22060394,
2.0625,93.46017456,
2.064166546,93.15816498,
2.06583333,93.04774475,
2.067500114,93.7664032,
2.06916666,92.11125946,
2.070833445,92.43554688,
2.07249999,92.60972595,
2.074166775,92.66794586,
2.075833321,92.79123688,
2.077500105,92.62532806,
2.079166651,93.4376297,
2.080833197,92.66933441,
2.082499981,93.00579834,
2.084166765,93.30115509,
2.085833311,93.09147644,
2.087500095,92.66825104,
2.089166641,93.12167358,
2.090833426,92.8188858,
2.092499971,93.41262054,
2.094166756,92.65054321,
2.095833302,92.8352356,
2.097500086,92.53139496,
2.099166632,93.17269897,
2.100833416,92.2909317,
2.102499962,94.01507568,
2.104166746,93.11388397,
2.105833292,92.81651306,
2.107500076,93.16251373,
2.109166622,93.10757446,
2.110833406,92.59602356,
2.112499952,91.91117096,
2.114166737,93.36457825,
2.115833521,92.75488281,
2.117500067,91.91925812,
2.119166613,92.13052368,
2.120833397,92.83469391,
2.122499943,93.38892365,
2.124166727,92.99677277,
2.125833273,92.72609711,
2.127500057,93.40118408,
2.129166603,92.75557709,
2.130833387,92.28764343,
2.132500172,93.34111023,
2.134166718,91.97046661,
2.135833502,92.88786316,
2.137500048,92.38297272,
2.139166832,92.99230957,
2.140833378,92.21944427,
2.142500162,92.77375793,
2.144166708,93.16188049,
2.145833254,92.50789642,
2.147500038,92.75868988,
2.149166584,92.9693985,
2.150833368,92.16338348,
2.152500153,92.85449219,
2.154166698,92.72767639,
2.155833483,91.882164,
2.157500029,92.17208099,
2.159166813,92.14295197,
2.160833597,92.95191956,
2.162499905,92.44974518,
2.164166689,93.62726593,
2.165833235,93.30083466,
2.167500019,92.59123993,
2.169166803,91.74200439,
2.170833349,92.15724945,
2.172500134,92.55378723,
2.174166679,92.12770844,
2.175833464,92.81390381,
2.177500248,92.54311371,
2.179166555,92.84793854,
2.18083334,92.68334961,
2.182499886,92.96652985,
2.18416667,93.13487244,
2.185833454,92.04893494,
2.1875,91.77799225,
2.189166784,92.64720917,
2.19083333,91.9238739,
2.192500114,92.40692902,
2.194166899,92.61096191,
2.195833445,94.6163559,
2.19749999,93.31812286,
2.199166536,91.894104,
2.200833321,93.18578339,
2.202500105,91.87225342,
2.204166651,91.8767395,
2.205833435,92.24734497,
2.207499981,92.30216217,
2.209166765,93.2469101,
2.210833549,92.32583618,
2.212500095,91.59872437,
2.21416688,92.66407013,
2.215833187,92.3577652,
2.217499971,92.00650787,
2.219166756,92.00505829,
2.220833302,91.87586975,
2.222500086,92.55606079,
2.224166632,92.71186829,
2.225833416,91.48023987,
2.2275002,92.9446106,
2.229166746,93.00414276,
2.23083353,93.44490814,
2.232499838,92.39733124,
2.234166622,91.15771484,
2.235833406,92.99719238,
2.237499952,92.86380005,
2.239166737,93.04555511,
2.240833282,92.07120514,
2.242500067,92.28623962,
2.244166851,92.53358459,
2.245833397,91.08514404,
2.247500181,92.68097687,
2.249166727,92.10526276,
2.250833273,91.82789612,
2.252500057,91.13672638,
2.254166603,92.92886353,
2.255833387,92.53918457,
2.257499933,92.24407959,
2.259166718,92.44687653,
2.260833502,91.51042175,
2.262500048,91.51073456,
2.264166832,91.73379517,
2.265833378,91.20809937,
2.267500162,92.3259964,
2.269166708,92.87800598,
2.270833254,91.53477478,
2.272500038,91.73201752,
2.274166584,91.83989716,
2.275833368,91.85511017,
2.277500153,91.62713623,
2.279166698,92.04456329,
2.280833483,92.75240326,
2.282500029,91.59253693,
2.284166813,92.26837921,
2.285833597,91.77574158,
2.287499905,92.74343872,
2.289166689,92.28805542,
2.290833235,92.22071075,
2.292500019,92.63162994,
2.294166803,91.42930603,
2.295833349,92.78330994,
2.297500134,92.23718262,
2.299166679,92.66231537,
2.300833464,92.26284027,
2.302500248,91.58419037,
2.304166555,91.29962921,
2.30583334,92.05063629,
2.307499886,91.90624237,
2.30916667,92.83010864,
2.310833454,92.21757507,
2.3125,91.86991882,
2.314166784,91.72418213,
2.31583333,91.71199799,
2.317500114,91.46979523,
2.319166899,91.89420319,
2.320833445,91.98679352,
2.32249999,92.09412384,
2.324166536,92.50215912,
2.325833321,91.32431793,
2.327500105,91.98558044,
2.329166651,91.82590485,
2.330833435,92.21586609,
2.332499981,91.87975311,
2.334166765,91.71701813,
2.335833549,92.91529846,
2.337500095,91.76441193,
2.33916688,92.18490601,
2.340833187,92.58764648,
2.342499971,92.27420807,
2.344166756,90.51708984,
2.345833302,91.25531006,
2.347500086,92.08087158,
2.349166632,92.09936523,
2.350833416,91.10816193,
2.3525002,90.84514618,
2.354166746,92.06559753,
2.35583353,91.70240021,
2.357499838,92.21659088,
2.359166622,92.1428299,
2.360833406,92.20694733,
2.362499952,92.1390152,
2.364166737,92.19591522,
2.365833282,93.64239502,
2.367500067,91.89995575,
2.369166851,91.05966187,
2.370833397,91.80791473,
2.372500181,91.72431183,
2.374166727,92.31671906,
2.375833273,90.53642273,
2.377500057,91.35881805,
2.379166603,92.87036133,
2.380833387,92.20254517,
2.382499933,92.34723663,
2.384166718,91.496521,
2.385833502,92.07672882,
2.387500048,92.52754211,
2.389166832,91.50222015,
2.390833378,92.11382294,
2.392500162,91.1780777,
2.394166708,92.18951416,
2.395833254,91.71211243,
2.397500038,91.92581177,
2.399166584,92.64372253,
2.400833368,92.54202271,
2.402500153,91.51586151,
2.404166698,91.61251068,
2.405833483,91.76856232,
2.407500029,91.25302124,
2.409166813,91.86528015,
2.410833597,91.71546173,
2.412499905,91.37186432,
2.414166689,91.48117828,
2.415833235,92.35990906,
2.417500019,91.01914215,
2.419166803,91.98490143,
2.420833349,92.74606323,
2.422500134,91.78036499,
2.424166679,91.66757965,
2.425833464,92.63443756,
2.427500248,91.22646332,
2.429166555,91.11035156,
2.43083334,90.95181274,
2.432499886,92.03924561,
2.43416667,92.65107727,
2.435833454,92.7684021,
2.4375,92.37460327,
2.439166784,92.83079529,
2.44083333,91.66750336,
2.442500114,91.55360413,
2.444166899,92.37921143,
2.445833445,92.82707977,
2.44749999,91.80169678,
2.449166536,92.0110321,
2.450833321,92.17617035,
2.452500105,92.0912323,
2.454166651,91.16241455,
2.455833435,91.43186188,
2.457499981,93.09997559,
2.459166765,92.42327881,
2.460833549,91.7268219,
2.462500095,91.71873474,
2.46416688,91.56558228,
2.465833187,93.43936157,
2.467499971,91.27462006,
2.469166756,92.20695496,
2.470833302,91.82885742,
2.472500086,91.92971039,
2.474166632,92.08584595,
2.475833416,91.90179443,
2.4775002,90.25100708,
2.479166746,91.289505,
2.48083353,90.97961426,
2.482499838,92.86008453,
2.484166622,91.83138275,
2.485833406,91.58208466,
2.487499952,92.01088715,
2.489166737,91.33865356,
2.490833282,91.80843353,
2.492500067,90.97372437,
2.494166851,92.43737793,
2.495833397,91.84268188,
2.497500181,92.48469543,
2.499166727,90.91350555,
2.500833273,92.97409821,
2.502500057,92.00559998,
2.504166603,92.04841614,
2.505833387,91.11341095,
2.507499933,91.28683472,
2.509166718,91.95485687,
2.510833502,92.26743317,
2.512500048,90.92332458,
2.514166832,91.84816742,
2.515833378,91.34577942,
2.517500162,90.55094147,
2.519166708,91.78529358,
2.520833254,92.05995941,
2.522500038,93.1386795,
2.524166584,91.35010529,
2.525833368,92.00305939,
2.527500153,92.05653381,
2.529166698,90.92366028,
2.530833483,91.82200623,
2.532500029,92.0304718,
2.534166813,91.34119415,
2.535833597,91.07859802,
2.537499905,92.21099854,
2.539166689,92.42127228,
2.540833235,91.65115356,
2.542500019,91.84805298,
2.544166803,91.8846283,
2.545833349,92.06477356,
2.547500134,91.55561066,
2.549166679,90.92428589,
2.550833464,92.06108093,
2.552500248,91.43293762,
2.554166555,91.9167099,
2.55583334,91.89736938,
2.557499886,90.95219421,
2.55916667,92.52009583,
2.560833454,91.15979004,
2.5625,92.03361511,
2.564166784,91.91590881,
2.56583333,92.44093323,
2.567500114,91.41705322,
2.569166899,91.51725769,
2.570833445,92.28647614,
2.57249999,91.90986633,
2.574166536,91.26765442,
2.575833321,91.43496704,
2.577500105,91.29336548,
2.579166651,91.33903503,
2.580833435,91.45888519,
2.582499981,91.74845123,
2.584166765,90.71489716,
2.585833549,91.57741547,
2.587500095,91.55233002,
2.58916688,91.81919861,
2.590833187,91.39065552,
2.592499971,91.83566284,
2.594166756,91.46279144,
2.595833302,91.35588837,
2.597500086,91.54593658,
2.599166632,91.47909546,
2.600833416,91.02014923,
2.6025002,92.14830017,
2.604166746,91.63551331,
2.60583353,91.96862793,
2.607499838,90.93230438,
2.609166622,91.57443237,
2.610833406,91.33583069,
2.612499952,90.87714386,
2.614166737,91.07711029,
2.615833282,92.68370819,
2.617500067,91.81211853,
2.619166851,92.01985168,
2.620833397,91.10753632,
2.622500181,91.91833496,
2.624166727,91.43230438,
2.625833273,91.87433624,
2.627500057,91.81121826,
2.629166603,92.66334534,
2.630833387,91.80986023,
2.632499933,91.98418427,
2.634166718,91.4282608,
2.635833502,91.49407196,
2.637500048,91.98181152,
2.639166832,91.61711121,
2.640833378,90.80393982,
2.642500162,93.80257416,
2.644166708,92.46237946,
2.645833254,92.22125244,
2.647500038,92.37921143,
2.649166584,91.19017792,
2.650833368,91.42687988,
2.652500153,91.00668335,
2.654166698,90.91802216,
2.655833483,92.1142807,
2.657500029,92.51782227,
2.659166813,92.02801514,
2.660833597,92.40970612,
2.662499905,91.67480469,
2.664166689,90.36158752,
2.665833235,91.93730164,
2.667500019,93.02368927,
2.669166803,92.0750351,
2.670833349,91.92953491,
2.672500134,91.71340942,
2.674166679,91.14295197,
2.675833464,92.06700897,
2.677500248,90.97502136,
2.679166555,91.70830536,
2.68083334,91.32039642,
2.682499886,91.87290192,
2.68416667,91.44918823,
2.685833454,91.45192719,
2.6875,91.49725342,
2.689166784,91.33908844,
2.69083333,91.20040894,
2.692500114,91.18889618,
2.694166899,92.08191681,
2.695833445,91.96746826,
2.69749999,93.00808716,
2.699166536,90.79598236,
2.700833321,91.80245209,
2.702500105,91.9699707,
2.704166651,93.0186615,
2.705833435,91.59337616,
2.707499981,91.63349152,
2.709166765,92.24149323,
2.710833549,92.38000488,
2.712500095,92.13330841,
2.71416688,90.5933609,
2.715833187,92.31227875,
2.717499971,92.44789124,
2.719166756,90.78495789,
2.720833302,91.62917328,
2.722500086,93.03308868,
2.724166632,92.99369812,
2.725833416,92.0522995,
2.7275002,91.64586639,
2.729166746,92.43924713,
2.73083353,92.53168488,
2.732499838,92.01073456,
2.734166622,90.81459808,
2.735833406,91.73696899,
2.737499952,92.02275085,
2.739166737,92.13908386,
2.740833282,91.948349,
2.742500067,92.10549927,
2.744166851,90.73370361,
2.745833397,91.24408722,
2.747500181,92.01895142,
2.749166727,91.67589569,
2.750833273,91.1464386,
2.752500057,91.45696259,
2.754166603,92.24545288,
2.755833387,90.99467468,
2.757499933,92.14134216,
2.759166718,91.22305298,
2.760833502,91.83470917,
2.762500048,91.40054321,
2.764166832,91.08959961,
2.765833378,91.11682892,
2.767500162,91.32843781,
2.769166708,91.24025726,
2.770833254,91.46466827,
2.772500038,92.53347015,
2.774166584,91.35268402,
2.775833368,92.07361603,
2.777500153,90.12244415,
2.779166698,91.96653748,
2.780833483,90.53483582,
2.782500029,91.54628754,
2.784166813,91.39743042,
2.785833597,92.04389191,
2.787499905,92.26016998,
2.789166689,90.84026337,
2.790833235,93.29991913,
2.792500019,91.33290863,
2.794166803,91.16746521,
2.795833349,91.29361725,
2.797500134,91.10297394,
2.799166679,91.46562195,
2.800833464,91.21570587,
2.802500248,91.22111511,
2.804166555,91.76426697,
2.80583334,92.04499817,
2.807499886,90.56880951,
2.80916667,92.53516388,
2.810833454,92.27307129,
2.8125,91.54544067,
2.814166784,92.56039429,
2.81583333,92.07002258,
2.817500114,91.74172211,
2.819166899,92.01425171,
2.820833445,91.53640747,
2.82249999,91.22955322,
2.824166536,91.28858948,
2.825833321,91.46601868,
2.827500105,91.10067749,
2.829166651,91.67044067,
2.830833435,91.34768677,
2.832499981,90.92910004,
2.834166765,92.14447784,
2.835833549,91.19776154,
2.837500095,90.73952484,
2.83916688,91.67515564,
2.840833187,90.88609314,
2.842499971,90.91724396,
2.844166756,92.01525879,
2.845833302,90.71038055,
2.847500086,92.22382355,
2.849166632,91.53538513,
2.850833416,90.88467407,
2.8525002,92.37149048,
2.854166746,91.33609772,
2.85583353,91.72238922,
2.857499838,91.679039,
2.859166622,92.24571228,
2.860833406,91.49601746,
2.862499952,91.19428253,
2.864166737,92.24902344,
2.865833282,91.62345123,
2.867500067,92.19612885,
2.869166851,92.20870209,
2.870833397,90.49443817,
2.872500181,92.11607361,
2.874166727,91.92107391,
2.875833273,91.07693481,
2.877500057,91.89021301,
2.879166603,91.59893799,
2.880833387,91.99214172,
2.882499933,91.78677368,
2.884166718,91.77308655,
2.885833502,91.11862946,
2.887500048,91.13244629,
2.889166832,91.94404602,
2.890833378,91.60961914,
2.892500162,91.56630707,
2.894166708,92.11306763,
2.895833254,92.93582153,
2.897500038,92.84643555,
2.899166584,91.17264557,
2.900833368,90.92144012,
2.902500153,92.02058411,
2.904166698,91.29380798,
2.905833483,91.0352478,
2.907500029,91.72076416,
2.909166813,91.71408081,
2.910833597,91.93089294,
2.912499905,91.84654999,
2.914166689,92.1423645,
2.915833235,91.62942505,
2.917500019,91.61154938,
2.919166803,91.42234802,
2.920833349,91.49150085,
2.922500134,91.69987488,
2.924166679,91.85424805,
2.925833464,92.23962402,
2.927500248,91.26366425,
2.929166555,92.56122589,
2.93083334,91.55536652,
2.932499886,91.36096954,
2.93416667,91.84334564,
2.935833454,92.25976563,
2.9375,92.6506958,
2.939166784,92.15682983,
2.94083333,91.70700073,
2.942500114,92.49316406,
2.944166899,92.30567932,
2.945833445,91.51459503,
2.94749999,92.58201599,
2.949166536,91.01620483,
2.950833321,91.84971619,
2.952500105,91.07016754,
2.954166651,91.67666626,
2.955833435,91.82080841,
2.957499981,90.92331696,
2.959166765,91.17797852,
2.960833549,92.64198303,
2.962500095,91.43711853,
2.96416688,92.32201385,
2.965833187,91.3819809,
2.967499971,91.76374817,
2.969166756,92.19862366,
2.970833302,91.04780579,
2.972500086,92.26946259,
2.974166632,91.62698364,
2.975833416,91.75243378,
2.9775002,91.5293045,
2.979166746,92.79166412,
2.98083353,91.68380737,
2.982499838,90.4595871,
2.984166622,91.79564667,
2.985833406,92.07041931,
2.987499952,91.75630188,
2.989166737,92.39731598,
2.990833282,91.97689056,
2.992500067,91.08119965,
2.994166851,91.17699432,
2.995833397,91.40081787,
2.997500181,90.74971008,
2.999166727,91.66792297,
3.000833273,91.1925354,
3.002500057,91.71987915,
3.004166603,92.00332642,
3.005833387,92.39785767,
3.007499933,91.86283875,
3.009166718,91.42490387,
3.010833502,92.60728455,
3.012500048,92.19287109,
3.014166832,92.40640259,
3.015833378,90.64904785,
3.017500162,92.09542847,
3.019166708,90.90744019,
3.020833254,91.01613617,
3.022500038,91.46022797,
3.024166584,91.64044189,
3.025833368,91.40467072,
3.027500153,91.48777771,
3.029166698,92.61461639,
3.030833483,90.94179535,
3.032500029,91.5670166,
3.034166813,92.61623383,
3.035833597,91.66855621,
3.037499905,92.47396088,
3.039166689,91.19361877,
3.040833235,90.5958786,
3.042500019,90.08682251,
3.044166803,92.30381012,
3.045833349,91.4154129,
3.047500134,92.4081192,
3.049166679,92.16033936,
3.050833464,91.63790894,
3.052500248,91.26457214,
3.054166555,91.29651642,
3.05583334,91.70646667,
3.057499886,91.99421692,
3.05916667,91.98874664,
3.060833454,91.65524292,
3.0625,91.47409058,
3.064166784,92.21290588,
3.06583333,91.19208527,
3.067500114,92.3994751,
3.069166899,91.9654007,
3.070833445,91.76078796,
3.07249999,91.70931244,
3.074166536,90.89820099,
3.075833321,91.89660645,
3.077500105,91.86186981,
3.079166651,90.73593903,
3.080833435,90.59648895,
3.082499981,91.11225128,
3.084166765,91.42095947,
3.085833549,91.58813477,

