1,,
Time (min),Intensity (a.u.),
0.0008333333535,249.4713593,
0.002500000177,251.1461639,
0.004166666884,249.4254913,
0.005833333358,250.8968658,
0.007500000298,250.3567352,
0.009166667238,250.7067261,
0.01083333418,251.5947266,
0.01250000019,251.5493927,
0.01416666713,250.4181519,
0.01583333313,252.089859,
0.01750000194,251.5929413,
0.01916666701,250.8244781,
0.02083333395,250.2900085,
0.02250000089,250.5862427,
0.02416666783,251.3746643,
0.02583333477,251.5523376,
0.02749999985,251.1147003,
0.02916666679,251.0218353,
0.03083333373,252.0829773,
0.03250000253,250.1353607,
0.03416666761,250.78508,
0.03583333641,251.7566071,
0.03750000149,251.9031525,
0.03916667029,252.199173,
0.04083333537,252.5656891,
0.04250000045,251.8866119,
0.04416666925,252.4962769,
0.04583333433,252.3556671,
0.04750000313,250.4197388,
0.04916666821,249.9139404,
0.05083333328,251.1486053,
0.05250000209,251.6800232,
0.05416666716,251.1684875,
0.05583333597,251.4746857,
0.05750000104,253.668045,
0.05916666612,252.8170013,
0.06083333492,252.2425385,
0.0625,249.4875793,
0.06416667253,252.5152588,
0.0658333376,250.9489136,
0.06750000268,251.1253662,
0.06916666776,251.9498749,
0.07083333284,251.3815155,
0.07249999791,254.0994568,
0.07416667044,251.2690125,
0.07583333552,251.2465057,
0.0775000006,249.6662445,
0.07916666567,253.063736,
0.08083333075,251.5960083,
0.08250000328,252.6167908,
0.08416666836,253.7704773,
0.08583333343,250.1306458,
0.08749999851,250.5808716,
0.08916666359,251.9122925,
0.09083333611,252.5963135,
0.09250000119,252.1676483,
0.09416666627,250.7348633,
0.09583333135,251.3005981,
0.09749999642,251.7065125,
0.09916666895,252.1516418,
0.100833334,250.6651306,
0.1024999991,250.4807434,
0.1041666642,252.8875427,
0.1058333293,251.9409027,
0.1075000018,251.3546295,
0.1091666669,252.0572205,
0.1108333319,251.715683,
0.112499997,253.7298279,
0.1141666621,250.3180542,
0.1158333346,251.9459991,
0.1174999997,251.7742767,
0.1191666648,251.8206482,
0.1208333299,250.8458862,
0.1224999949,252.333313,
0.1241666749,252.2820587,
0.1258333325,251.3112488,
0.1274999976,250.1507721,
0.1291666627,252.7166595,
0.1308333278,250.9045258,
0.1325000077,250.0416565,
0.1341666728,253.4168091,
0.1358333379,250.8426971,
0.137500003,250.9426117,
0.1391666681,250.6333618,
0.1408333331,250.7658234,
0.1424999982,252.0202026,
0.1441666782,250.4627075,
0.1458333284,252.2941895,
0.1475000083,250.9868164,
0.1491666585,251.3644409,
0.1508333385,251.7948151,
0.1525000036,251.3232269,
0.1541666687,251.835022,
0.1558333337,250.6024017,
0.1574999988,250.6179504,
0.1591666639,252.8978577,
0.1608333439,252.2523651,
0.162499994,250.4231567,
0.164166674,253.0172729,
0.1658333242,252.3088684,
0.1675000042,251.9084473,
0.1691666692,251.3608093,
0.1708333343,251.3790131,
0.1724999994,252.0282898,
0.1741666645,253.3167877,
0.1758333296,251.0393524,
0.1775000095,251.1218262,
0.1791666597,250.5607605,
0.1808333397,250.6440277,
0.1824999899,251.585968,
0.1841666698,251.8444672,
0.1858333498,251.0547333,
0.1875,251.3939209,
0.18916668,251.4364471,
0.1908333302,251.8496246,
0.1925000101,251.6128693,
0.1941666752,252.8335419,
0.1958333403,251.4832916,
0.1975000054,251.0304413,
0.1991666704,250.4115753,
0.2008333355,250.7128143,
0.2025000155,251.8842163,
0.2041666657,251.8217926,
0.2058333457,251.4854126,
0.2074999958,252.1590881,
0.2091666758,251.3058777,
0.2108333409,253.4829102,
0.212500006,250.4577942,
0.214166671,251.6300049,
0.2158333361,251.8360596,
0.2175000012,251.7952271,
0.2191666812,249.6805573,
0.2208333313,250.9375763,
0.2225000113,252.5905914,
0.2241666615,251.4709473,
0.2258333415,251.2360535,
0.2275000066,251.9375458,
0.2291666716,251.5738373,
0.2308333367,252.5385284,
0.2325000018,252.7163391,
0.2341666669,250.9390106,
0.2358333468,251.885498,
0.237499997,251.9232635,
0.239166677,251.6790619,
0.2408333272,250.5830841,
0.2425000072,252.4690552,
0.2441666722,250.151062,
0.2458333373,250.9618073,
0.2475000024,250.5662384,
0.2491666675,252.2110596,
0.2508333325,253.2475891,
0.2524999976,251.4884491,
0.2541666627,251.6746826,
0.2558333278,251.2033844,
0.2574999928,250.4449768,
0.2591666579,251.3666687,
0.2608333528,252.0071869,
0.2624999881,251.6320648,
0.264166683,251.0522308,
0.2658333182,251.9553833,
0.2675000131,251.5437622,
0.2691666484,251.4285126,
0.2708333433,250.5520325,
0.2725000083,251.7637634,
0.2741666734,251.477951,
0.2758333385,250.6993713,
0.2775000036,250.7869263,
0.2791666687,251.2879944,
0.2808333337,251.2398071,
0.2824999988,252.3388824,
0.2841666937,251.9350281,
0.285833329,251.3386841,
0.287499994,249.6854858,
0.2891666591,251.2296448,
0.290833354,251.129364,
0.2925000191,250.930542,
0.2941666543,250.8760376,
0.2958333194,251.807663,
0.2975000143,253.2745361,
0.2991666794,250.2746887,
0.3008333445,252.1820374,
0.3024999797,251.5834503,
0.3041666746,252.4031677,
0.3058333397,250.6764832,
0.3075000048,250.9245911,
0.3091666996,251.4016876,
0.3108333349,250.8262634,
0.3125,251.4619751,
0.3141666651,251.4976196,
0.31583336,249.7460785,
0.317500025,251.8924103,
0.3191666603,251.9169159,
0.3208333254,248.6407013,
0.3225000203,251.3861389,
0.3241666853,252.2949219,
0.3258333504,251.0374756,
0.3274999857,250.5608826,
0.3291666806,250.814682,
0.3308333457,251.2008209,
0.3325000107,249.8825073,
0.3341666758,251.4675293,
0.3358333409,251.0190887,
0.337500006,251.9660645,
0.339166671,250.5130157,
0.3408333361,251.4911652,
0.342500031,252.3663025,
0.3441666663,250.0311127,
0.3458333313,251.042572,
0.3474999964,252.1268463,
0.3491666913,250.4244995,
0.3508333564,251.8344879,
0.3524999917,251.2569122,
0.3541666567,251.8800507,
0.3558333516,249.6869354,
0.3575000167,252.1565857,
0.3591666818,249.972702,
0.360833317,250.2763214,
0.3625000119,249.9283905,
0.364166677,252.6955872,
0.3658333421,250.6203308,
0.3675000072,250.3091125,
0.3691666722,251.5222168,
0.3708333373,249.8500214,
0.3725000024,251.9145966,
0.3741666675,251.5139313,
0.3758333623,250.8631897,
0.3774999976,251.5475769,
0.3791666627,250.6949921,
0.3808333278,252.5540924,
0.3825000226,252.4627686,
0.3841666877,250.2107391,
0.385833323,251.32724,
0.3874999881,252.9744873,
0.389166683,251.7398071,
0.390833348,250.3205872,
0.3925000131,251.1937561,
0.3941666484,251.6194305,
0.3958333433,251.9897156,
0.3975000083,251.2502747,
0.3991666734,251.1133575,
0.4008333385,251.8315277,
0.4025000036,250.2407074,
0.4041666687,250.1576538,
0.4058333337,250.9945679,
0.4074999988,251.2368011,
0.4091666937,251.4151917,
0.410833329,251.1629486,
0.412499994,249.815033,
0.4141666591,252.1083984,
0.415833354,252.5586243,
0.4175000191,252.6781616,
0.4191666543,250.693924,
0.4208333194,251.0792389,
0.4225000143,252.7864532,
0.4241666794,249.4529266,
0.4258333445,251.7704315,
0.4274999797,252.5558777,
0.4291666746,252.848114,
0.4308333397,255.2772217,
0.4325000048,252.1654968,
0.4341666996,250.6393433,
0.4358333349,250.0301666,
0.4375,250.6196136,
0.4391666651,251.509613,
0.44083336,250.5629425,
0.442500025,251.4102478,
0.4441666603,249.6381378,
0.4458333254,251.9662018,
0.4475000203,250.4920349,
0.4491666853,251.2301788,
0.4508333504,252.0541534,
0.4524999857,251.6453247,
0.4541666806,252.3699036,
0.4558333457,249.7980347,
0.4575000107,250.3613586,
0.4591666758,251.5319824,
0.4608333409,249.3263092,
0.462500006,250.6452789,
0.464166671,250.8972321,
0.4658333361,253.8158264,
0.467500031,251.0684357,
0.4691666663,252.4036407,
0.4708333313,251.8662872,
0.4724999964,250.7271423,
0.4741666913,250.0445251,
0.4758333564,250.3654327,
0.4774999917,250.4441376,
0.4791666567,252.946579,
0.4808333516,250.9085541,
0.4825000167,251.209259,
0.4841666818,251.9016571,
0.485833317,251.3424988,
0.4875000119,251.8672943,
0.489166677,249.9714966,
0.4908333421,250.1286011,
0.4925000072,249.9211578,
0.4941666722,251.737442,
0.4958333373,250.2451782,
0.4975000024,250.6503448,
0.4991666675,251.4096832,
0.5008333325,252.6486206,
0.5024999976,252.1892548,
0.5041666627,250.2503357,
0.5058333278,250.14711,
0.5074999928,248.9939728,
0.5091666579,249.9506073,
0.510833323,251.5076447,
0.5124999881,250.6985321,
0.5141666532,250.3035736,
0.5158333182,250.957901,
0.5175000429,251.3531494,
0.5191666484,249.7136993,
0.5208333135,250.4118347,
0.5224999785,251.8702698,
0.5241667032,250.9120178,
0.5258333683,252.9214325,
0.5274999738,251.0101166,
0.5291666389,251.8431244,
0.5308333635,251.6976929,
0.5325000286,251.5066833,
0.5341666341,250.1072235,
0.5358333588,251.4136963,
0.5375000238,252.1087494,
0.5391666889,250.413208,
0.540833354,251.0975342,
0.5424999595,251.9430847,
0.5441666842,250.4272766,
0.5458333492,251.7467499,
0.5475000143,250.0986786,
0.5491666794,250.1870422,
0.5508333445,249.651535,
0.5525000095,250.3184662,
0.5541666746,250.9745636,
0.5558333993,251.8044434,
0.5575000048,251.8560944,
0.5591666698,251.3096924,
0.5608333349,252.2218781,
0.5625,250.8700714,
0.5641667247,250.7920532,
0.5658333302,250.2149658,
0.5674999952,250.5193939,
0.5691667199,251.2864532,
0.5708333254,248.468399,
0.5725000501,251.1393433,
0.5741666555,249.5376434,
0.5758333206,250.2726288,
0.5775000453,250.2473602,
0.5791666508,251.4416504,
0.5808333755,249.7040405,
0.5825000405,250.7719727,
0.584166646,250.2870026,
0.5858333707,250.2145538,
0.5874999762,250.2441101,
0.5891667008,250.8080292,
0.5908333659,251.2697906,
0.5924999714,250.4694214,
0.5941666961,249.0487061,
0.5958333611,250.9616852,
0.5975000262,250.3386078,
0.5991666913,250.9124908,
0.6008332968,250.0857086,
0.6025000215,251.2923431,
0.6041666865,251.7899933,
0.6058333516,250.0717621,
0.6075000167,250.5079803,
0.6091666818,250.8378906,
0.6108333468,252.3861847,
0.6125000119,251.3315735,
0.614166677,250.1879883,
0.6158333421,251.271698,
0.6175000072,251.4791718,
0.6191666722,251.5402374,
0.6208333373,251.3683167,
0.622500062,250.5609131,
0.6241666675,249.6631012,
0.6258333325,250.5401917,
0.6274999976,253.4922333,
0.6291666627,251.4325104,
0.6308333874,250.7542114,
0.6324999928,250.2115021,
0.6341666579,250.8419189,
0.6358333826,250.2832184,
0.6374999881,251.2446594,
0.6391667128,250.2897949,
0.6408333182,250.6286469,
0.6424999833,251.2868042,
0.644166708,251.3319855,
0.6458333135,252.090332,
0.6475000381,249.9849701,
0.6491667032,250.4165497,
0.6508333087,250.9868164,
0.6525000334,251.6273193,
0.6541666389,251.1027679,
0.6558333635,250.713974,
0.6575000286,250.3876648,
0.6591666341,250.7356415,
0.6608333588,250.7365875,
0.6625000238,251.6831512,
0.6641666889,249.8829803,
0.665833354,253.3296967,
0.6674999595,251.6142426,
0.6691666842,251.8447876,
0.6708333492,252.1533661,
0.6725000143,251.4441376,
0.6741666794,251.9851379,
0.6758333445,252.5452423,
0.6775000095,251.608902,
0.6791666746,251.4272003,
0.6808333993,251.7970734,
0.6825000048,252.084259,
0.6841666698,252.0390472,
0.6858333349,251.8867493,
0.6875,250.9621735,
0.6891667247,252.1843872,
0.6908333302,251.3457184,
0.6924999952,251.0582275,
0.6941667199,250.6856384,
0.6958333254,251.5782166,
0.6975000501,250.3602142,
0.6991666555,250.3943481,
0.7008333206,251.3243256,
0.7025000453,250.8408661,
0.7041666508,250.6787109,
0.7058333755,252.1739655,
0.7075000405,251.0279083,
0.709166646,249.2850342,
0.7108333707,250.9010162,
0.7124999762,250.5900269,
0.7141667008,250.434906,
0.7158333659,250.7122803,
0.7174999714,252.1988525,
0.7191666961,250.9555817,
0.7208333611,250.3558044,
0.7225000262,250.6891174,
0.7241666913,249.9344025,
0.7258332968,250.8065033,
0.7275000215,249.0467834,
0.7291666865,251.8995972,
0.7308333516,250.0912323,
0.7325000167,251.7606354,
0.7341666818,251.6382294,
0.7358333468,251.388855,
0.7375000119,250.2692108,
0.739166677,250.7181091,
0.7408333421,250.6962738,
0.7425000072,251.2530975,
0.7441666722,252.0637207,
0.7458333373,250.3140869,
0.747500062,250.5654449,
0.7491666675,250.7458649,
0.7508333325,250.2833862,
0.7524999976,252.1628723,
0.7541666627,251.1760559,
0.7558333874,252.1015472,
0.7574999928,250.1824799,
0.7591666579,251.3385162,
0.7608333826,249.7681274,
0.7624999881,250.0165405,
0.7641667128,250.759903,
0.7658333182,252.0198212,
0.7674999833,250.6327362,
0.769166708,252.2194061,
0.7708333135,250.5855865,
0.7725000381,252.7362061,
0.7741667032,250.3242798,
0.7758333087,250.3809357,
0.7775000334,250.7417755,
0.7791666389,250.9289398,
0.7808333635,251.3256073,
0.7825000286,249.6746979,
0.7841666341,250.164505,
0.7858333588,250.6287079,
0.7875000238,250.5379028,
0.7891666889,250.6956177,
0.790833354,250.7932739,
0.7924999595,250.7805176,
0.7941666842,251.1012573,
0.7958333492,251.7557373,
0.7975000143,251.685379,
0.7991666794,253.8082275,
0.8008333445,251.7365875,
0.8025000095,251.0547943,
0.8041666746,251.7766113,
0.8058333993,252.5643463,
0.8075000048,252.382782,
0.8091666698,253.1071625,
0.8108333349,251.1145477,
0.8125,251.4806976,
0.8141667247,251.496109,
0.8158333302,251.1206512,
0.8174999952,250.4747772,
0.8191667199,251.1398468,
0.8208333254,250.7951508,
0.8225000501,251.1999969,
0.8241666555,251.1220856,
0.8258333206,249.1233673,
0.8275000453,250.9583282,
0.8291666508,250.9967041,
0.8308333755,252.4199524,
0.8325000405,249.9200134,
0.834166646,250.9684601,
0.8358333707,249.9117737,
0.8374999762,251.9275513,
0.8391667008,252.0442352,
0.8408333659,250.9238129,
0.8424999714,250.7487183,
0.8441666961,251.474762,
0.8458333611,250.1303864,
0.8475000262,251.3312073,
0.8491666913,252.1602783,
0.8508332968,251.7266235,
0.8525000215,253.2565308,
0.8541666865,251.1442261,
0.8558333516,250.938736,
0.8575000167,249.1387787,
0.8591666818,250.4872131,
0.8608333468,250.8876953,
0.8625000119,249.5611725,
0.864166677,251.1537018,
0.8658333421,251.3497467,
0.8675000072,251.382019,
0.8691666722,251.3428345,
0.8708333373,251.0108643,
0.872500062,252.6060028,
0.8741666675,251.1606445,
0.8758333325,249.5756073,
0.8774999976,249.4027405,
0.8791666627,250.4823761,
0.8808333874,250.3818512,
0.8824999928,251.0224915,
0.8841666579,251.7910919,
0.8858333826,251.2250824,
0.8874999881,251.4620056,
0.8891667128,251.7289581,
0.8908333182,249.3038483,
0.8924999833,251.5341644,
0.894166708,250.8623047,
0.8958333135,252.0036469,
0.8975000381,250.2781982,
0.8991667032,250.9812469,
0.9008333087,250.9592133,
0.9025000334,251.3943329,
0.9041666389,253.2983398,
0.9058333635,251.7779541,
0.9075000286,253.1307678,
0.9091666341,252.0631866,
0.9108333588,250.9142761,
0.9125000238,251.4731903,
0.9141666889,251.7543793,
0.915833354,249.6648102,
0.9174999595,250.3001404,
0.9191666842,250.8596191,
0.9208333492,250.1416473,
0.9225000143,252.1091461,
0.9241666794,250.8552094,
0.9258333445,252.4032898,
0.9275000095,250.9243469,
0.9291666746,249.9124146,
0.9308333993,251.6113892,
0.9325000048,250.2831573,
0.9341666698,251.58078,
0.9358333349,251.8047638,
0.9375,251.1183014,
0.9391667247,250.6599121,
0.9408333302,250.1867065,
0.9424999952,251.8251801,
0.9441667199,250.5219879,
0.9458333254,253.0526276,
0.9475000501,250.4918213,
0.9491666555,249.4194946,
0.9508333206,250.7508698,
0.9525000453,252.7580566,
0.9541666508,251.2510071,
0.9558333755,251.6754913,
0.9575000405,251.6447601,
0.959166646,251.0070801,
0.9608333707,250.3526459,
0.9624999762,252.2870636,
0.9641667008,251.741684,
0.9658333659,251.997345,
0.9674999714,249.7224274,
0.9691666961,251.0771179,
0.9708333611,251.2959595,
0.9725000262,251.9323578,
0.9741666913,249.6135406,
0.9758332968,251.0417175,
0.9775000215,251.644043,
0.9791666865,250.5751801,
0.9808333516,249.7284851,
0.9825000167,249.5833282,
0.9841666818,250.6857147,
0.9858333468,250.3015747,
0.9875000119,253.1720734,
0.989166677,249.5722046,
0.9908333421,251.6511688,
0.9925000072,249.9443817,
0.9941666722,251.5248108,
0.9958333373,250.996109,
0.997500062,251.0252533,
0.9991666675,251.8370819,
1.000833273,250.9575195,
1.002500057,252.0198517,
1.004166722,250.8652496,
1.005833387,249.9879608,
1.007500052,252.2442017,
1.009166598,251.4098511,
1.010833383,250.9527283,
1.012500048,253.148468,
1.014166713,251.4621582,
1.015833378,250.979248,
1.017500043,250.7910461,
1.019166708,250.4965668,
1.020833373,251.9702606,
1.022500038,250.9246826,
1.024166703,251.3721008,
1.025833368,250.4664612,
1.027500033,250.4981995,
1.029166698,215.9079132,
1.030833364,213.83284,
1.032500029,214.5629425,
1.034166694,203.1487732,
1.035833359,200.2689056,
1.037500024,192.80513,
1.039166689,218.1015472,
1.040833354,224.767807,
1.042500019,222.8718719,
1.044166684,218.9531555,
1.045833349,217.9586182,
1.047500014,218.8251495,
1.049166679,217.809433,
1.050833344,217.0827789,
1.05250001,216.8858185,
1.054166675,207.1052856,
1.05583334,218.7719269,
1.057500005,208.667038,
1.05916667,222.2148438,
1.060833335,217.730545,
1.0625,199.1659393,
1.064166665,208.771225,
1.06583333,207.3191223,
1.067499995,198.2171783,
1.06916666,222.533844,
1.070833325,207.3209839,
1.07249999,197.0528107,
1.074166775,219.5562592,
1.07583344,197.1572266,
1.077499986,192.9961853,
1.079166651,215.8609619,
1.080833316,208.7526398,
1.0825001,205.1772919,
1.084166765,221.6618042,
1.085833311,225.5934143,
1.087499976,224.1817322,
1.089166641,224.5522003,
1.090833426,223.7160645,
1.092500091,222.6806488,
1.094166636,221.0564423,
1.095833302,221.6627197,
1.097499967,219.7330475,
1.099166751,221.9729614,
1.100833416,221.1183319,
1.102500081,220.1151276,
1.104166627,220.6425018,
1.105833292,219.7988739,
1.107500076,219.2584686,
1.109166741,218.3933716,
1.110833406,217.1404724,
1.112499952,216.3321228,
1.114166617,217.2870331,
1.115833402,215.3145142,
1.117500067,216.1665344,
1.119166732,213.7664642,
1.120833278,213.6356659,
1.122499943,214.1752014,
1.124166727,213.3812714,
1.125833392,213.9602356,
1.127500057,214.4377441,
1.129166722,212.5280457,
1.130833268,211.7030029,
1.132500052,211.6585693,
1.134166718,208.7229462,
1.135833383,211.1995697,
1.137500048,210.9917908,
1.139166594,208.9997711,
1.140833378,208.2505341,
1.142500043,210.2557373,
1.144166708,210.5758057,
1.145833373,208.7949371,
1.147499919,208.8262177,
1.149166703,208.4325714,
1.150833368,208.1232605,
1.152500033,207.1894379,
1.154166698,207.8225708,
1.155833364,207.5681458,
1.157500029,208.3981171,
1.159166694,207.0370636,
1.160833359,206.8058777,
1.162500024,206.9560699,
1.164166689,205.2475739,
1.165833354,205.6356659,
1.167500019,205.3918762,
1.169166684,205.4161224,
1.170833349,205.2857513,
1.172500014,206.2949219,
1.174166799,204.7718506,
1.175833344,206.2850189,
1.17750001,204.6194763,
1.179166675,204.1715393,
1.18083334,204.2666321,
1.182500124,204.7295685,
1.18416667,204.2670593,
1.185833335,202.8040924,
1.1875,201.7671967,
1.189166665,203.965744,
1.190833449,202.6665039,
1.192499995,202.4521179,
1.19416666,203.3995361,
1.195833325,202.3744507,
1.19749999,202.530365,
1.199166775,203.4332275,
1.20083344,201.7328949,
1.202499986,202.3337708,
1.204166651,201.7154694,
1.205833316,202.4657135,
1.2075001,200.0128632,
1.209166765,201.9824677,
1.210833311,201.4362793,
1.212499976,201.348587,
1.214166641,199.9034271,
1.215833426,200.8428497,
1.217500091,200.5434723,
1.219166636,199.9641266,
1.220833302,199.0000305,
1.222499967,200.8334656,
1.224166751,200.0753632,
1.225833416,199.5895844,
1.227500081,201.0905304,
1.229166627,199.9335632,
1.230833292,199.6043549,
1.232500076,198.875061,
1.234166741,198.1073456,
1.235833406,198.9302216,
1.237499952,199.0229187,
1.239166617,200.4460449,
1.240833402,199.3487244,
1.242500067,199.3502197,
1.244166732,198.2455292,
1.245833278,198.1985779,
1.247499943,199.3705292,
1.249166727,199.0943756,
1.250833392,198.8165894,
1.252500057,199.2098999,
1.254166722,197.5436096,
1.255833268,197.6495514,
1.257500052,198.6759491,
1.259166718,198.2927246,
1.260833383,196.1640472,
1.262500048,198.1436462,
1.264166594,197.9719238,
1.265833378,197.4955902,
1.267500043,196.9507141,
1.269166708,196.6155853,
1.270833373,198.7258148,
1.272499919,196.6793976,
1.274166703,196.5057831,
1.275833368,195.9884644,
1.277500033,196.2810059,
1.279166698,196.0814667,
1.280833364,197.4408417,
1.282500029,196.5426025,
1.284166694,197.8968506,
1.285833359,195.3121338,
1.287500024,196.7549133,
1.289166689,196.2980652,
1.290833354,198.1038666,
1.292500019,197.5314636,
1.294166684,197.977951,
1.295833349,197.4740295,
1.297500014,196.019165,
1.299166799,196.377533,
1.300833344,196.3313293,
1.30250001,195.4841003,
1.304166675,195.7804871,
1.30583334,196.3345337,
1.307500124,195.0298309,
1.30916667,196.0360107,
1.310833335,194.6788788,
1.3125,194.8750305,
1.314166665,195.0749512,
1.315833449,195.0744019,
1.317499995,194.4761047,
1.31916666,194.975296,
1.320833325,196.2098694,
1.32249999,194.940033,
1.324166775,195.7867737,
1.32583344,195.2900848,
1.327499986,196.4099884,
1.329166651,194.1649017,
1.330833316,195.1060944,
1.3325001,194.8752441,
1.334166765,193.2987671,
1.335833311,194.1322479,
1.337499976,193.8129425,
1.339166641,194.5690002,
1.340833426,194.255722,
1.342500091,196.0270233,
1.344166636,195.0184479,
1.345833302,194.2266388,
1.347499967,195.117569,
1.349166751,194.5756226,
1.350833416,193.8875732,
1.352500081,195.4373169,
1.354166627,194.9794464,
1.355833292,193.1620941,
1.357500076,193.159668,
1.359166741,194.6712036,
1.360833406,193.8246307,
1.362499952,192.9414825,
1.364166617,192.8377228,
1.365833402,192.7106018,
1.367500067,193.7810974,
1.369166732,192.6929932,
1.370833278,193.6182556,
1.372499943,192.8418427,
1.374166727,193.0230255,
1.375833392,192.3160858,
1.377500057,191.4309998,
1.379166722,192.3530273,
1.380833268,194.1982727,
1.382500052,192.6635284,
1.384166718,192.5102844,
1.385833383,194.8098297,
1.387500048,192.5624084,
1.389166594,192.6038513,
1.390833378,192.9038239,
1.392500043,193.2385406,
1.394166708,192.1066742,
1.395833373,193.0104218,
1.397499919,192.7678528,
1.399166703,192.4751129,
1.400833368,192.1655121,
1.402500033,191.1926575,
1.404166698,191.4353027,
1.405833364,193.2987213,
1.407500029,192.3035126,
1.409166694,191.730896,
1.410833359,191.5930786,
1.412500024,191.8916016,
1.414166689,192.8112488,
1.415833354,192.1920624,
1.417500019,192.1362457,
1.419166684,192.3313751,
1.420833349,191.9624023,
1.422500014,192.2712097,
1.424166799,192.5848846,
1.425833344,190.9212646,
1.42750001,191.9668579,
1.429166675,191.2779541,
1.43083334,191.5441132,
1.432500124,191.01651,
1.43416667,191.4275818,
1.435833335,191.8632202,
1.4375,191.8761292,
1.439166665,191.5255585,
1.440833449,191.1878204,
1.442499995,190.8528595,
1.44416666,191.4884796,
1.445833325,191.6565857,
1.44749999,191.0582123,
1.449166775,191.322464,
1.45083344,191.8149567,
1.452499986,191.2636414,
1.454166651,192.1816864,
1.455833316,189.9176788,
1.4575001,191.8421478,
1.459166765,191.9520111,
1.460833311,191.2619476,
1.462499976,191.5194244,
1.464166641,191.0272217,
1.465833426,192.4502563,
1.467500091,191.0495911,
1.469166636,192.40242,
1.470833302,190.3239136,
1.472499967,191.8275299,
1.474166751,190.4131317,
1.475833416,191.5497894,
1.477500081,191.177536,
1.479166627,191.0215912,
1.480833292,191.4631042,
1.482500076,190.2496338,
1.484166741,190.4261169,
1.485833406,191.0804291,
1.487499952,189.8378754,
1.489166617,190.5868378,
1.490833402,190.5744171,
1.492500067,190.3651581,
1.494166732,191.0648346,
1.495833278,188.4797363,
1.497499943,190.1437683,
1.499166727,189.9292603,
1.500833392,189.9019928,
1.502500057,189.8732605,
1.504166722,188.7755737,
1.505833268,190.4692535,
1.507500052,189.8947449,
1.509166718,189.7272491,
1.510833383,189.5825348,
1.512500048,189.7970428,
1.514166594,189.0451965,
1.515833378,189.79422,
1.517500043,191.2064819,
1.519166708,190.5081177,
1.520833373,189.8992157,
1.522499919,189.3665771,
1.524166703,190.298111,
1.525833368,189.7055359,
1.527500033,190.564682,
1.529166698,190.3151093,
1.530833364,190.0128174,
1.532500029,189.2971497,
1.534166694,191.3523407,
1.535833359,189.154541,
1.537500024,190.210022,
1.539166689,189.3353729,
1.540833354,188.9257202,
1.542500019,190.0150299,
1.544166684,189.2534027,
1.545833349,188.4597168,
1.547500014,188.8125763,
1.549166799,189.4617767,
1.550833344,188.8304443,
1.55250001,189.697113,
1.554166675,189.8242035,
1.55583334,190.0332336,
1.557500124,189.3877411,
1.55916667,189.2351532,
1.560833335,190.2554321,
1.5625,190.5143127,
1.564166665,190.0681763,
1.565833449,190.0235443,
1.567499995,189.636734,
1.56916666,188.660141,
1.570833325,188.9669342,
1.57249999,190.065506,
1.574166775,189.4094391,
1.57583344,190.4997253,
1.577499986,188.9736786,
1.579166651,189.1535034,
1.580833316,189.2176056,
1.5825001,188.3145752,
1.584166765,188.5365906,
1.585833311,189.7989807,
1.587499976,188.2197876,
1.589166641,191.0551758,
1.590833426,188.8787537,
1.592500091,190.2702637,
1.594166636,187.4535522,
1.595833302,187.6883545,
1.597499967,188.1361389,
1.599166751,190.0882263,
1.600833416,188.6476135,
1.602500081,188.2286072,
1.604166627,189.3945923,
1.605833292,191.0267181,
1.607500076,190.0399933,
1.609166741,189.5977783,
1.610833406,188.0113678,
1.612499952,188.3291321,
1.614166617,188.6604614,
1.615833402,189.3485107,
1.617500067,188.9096222,
1.619166732,189.9303284,
1.620833278,189.1184845,
1.622499943,189.9096527,
1.624166727,189.3414459,
1.625833392,188.7178802,
1.627500057,189.9914093,
1.629166722,189.7364044,
1.630833268,188.4222107,
1.632500052,188.0266113,
1.634166718,188.6488037,
1.635833383,186.3471527,
1.637500048,187.8321075,
1.639166594,190.0798798,
1.640833378,189.8261566,
1.642500043,189.7933807,
1.644166708,187.8598938,
1.645833373,188.0852966,
1.647499919,187.8282318,
1.649166703,188.9361115,
1.650833368,189.8023071,
1.652500033,188.3811188,
1.654166698,189.3036957,
1.655833364,187.6108704,
1.657500029,189.194046,
1.659166694,188.8685608,
1.660833359,188.5738678,
1.662500024,187.7427063,
1.664166689,188.5184021,
1.665833354,187.9388733,
1.667500019,189.6143341,
1.669166684,188.1442566,
1.670833349,188.2094269,
1.672500014,187.7710114,
1.674166799,189.2727203,
1.675833344,187.9364929,
1.67750001,188.513855,
1.679166675,188.2990723,
1.68083334,188.9135132,
1.682500124,187.0872498,
1.68416667,189.0438385,
1.685833335,189.6128235,
1.6875,189.3799896,
1.689166665,189.0760498,
1.690833449,187.3727722,
1.692499995,187.5578918,
1.69416666,187.9253998,
1.695833325,187.6746674,
1.69749999,187.3955383,
1.699166775,188.1945038,
1.70083344,189.0570221,
1.702499986,188.1933136,
1.704166651,187.3704071,
1.705833316,187.3600464,
1.7075001,188.9620667,
1.709166765,188.0787354,
1.710833311,187.4288177,
1.712499976,187.3528595,
1.714166641,187.4244995,
1.715833426,185.8179474,
1.717500091,188.1592865,
1.719166636,188.1596527,
1.720833302,185.8879547,
1.722499967,188.1678925,
1.724166751,186.8618011,
1.725833416,189.2780914,
1.727500081,188.0069427,
1.729166627,187.6044006,
1.730833292,186.459549,
1.732500076,186.780899,
1.734166741,188.0238953,
1.735833406,188.4618073,
1.737499952,187.3270264,
1.739166617,186.4941864,
1.740833402,187.8587494,
1.742500067,187.0488434,
1.744166732,187.8578339,
1.745833278,186.3458405,
1.747499943,187.085907,
1.749166727,188.557724,
1.750833392,186.4900208,
1.752500057,187.6366272,
1.754166722,188.4641724,
1.755833268,185.3667603,
1.757500052,188.6403656,
1.759166718,187.4575195,
1.760833383,185.8874512,
1.762500048,188.0904388,
1.764166594,187.1632538,
1.765833378,187.4267731,
1.767500043,186.8287659,
1.769166708,188.0654144,
1.770833373,185.9862213,
1.772499919,187.6470337,
1.774166703,186.965332,
1.775833368,187.2989349,
1.777500033,188.4846649,
1.779166698,187.9167633,
1.780833364,186.7503052,
1.782500029,186.251297,
1.784166694,186.6447906,
1.785833359,186.1622009,
1.787500024,186.6673126,
1.789166689,187.4413605,
1.790833354,187.2995605,
1.792500019,186.779541,
1.794166684,186.8096161,
1.795833349,186.6425018,
1.797500014,186.795929,
1.799166799,186.1851807,
1.800833344,187.1722717,
1.80250001,186.3607178,
1.804166675,186.7470245,
1.80583334,186.203598,
1.807500124,185.9131927,
1.80916667,186.8707123,
1.810833335,187.2382202,
1.8125,186.9486694,
1.814166665,187.876709,
1.815833449,187.912796,
1.817499995,186.9824219,
1.81916666,186.7942657,
1.820833325,185.8911285,
1.82249999,185.7827148,
1.824166775,185.679184,
1.82583344,187.3978882,
1.827499986,186.0059967,
1.829166651,186.7859497,
1.830833316,187.0787964,
1.8325001,187.1732483,
1.834166765,186.5676117,
1.835833311,185.3318634,
1.837499976,187.4426422,
1.839166641,185.8574524,
1.840833426,185.5862427,
1.842500091,187.1434631,
1.844166636,186.6380463,
1.845833302,186.3018951,
1.847499967,185.671814,
1.849166751,185.107132,
1.850833416,187.303009,
1.852500081,187.1754913,
1.854166627,187.1406403,
1.855833292,186.9926605,
1.857500076,187.163269,
1.859166741,187.7105103,
1.860833406,186.7290344,
1.862499952,185.8841858,
1.864166617,185.9906311,
1.865833402,186.3350372,
1.867500067,185.8381348,
1.869166732,186.7557831,
1.870833278,185.8579102,
1.872499943,186.8968811,
1.874166727,186.2565918,
1.875833392,185.6887665,
1.877500057,186.3070374,
1.879166722,185.2474823,
1.880833268,185.7700958,
1.882500052,186.2063293,
1.884166718,186.72612,
1.885833383,186.298233,
1.887500048,185.391037,
1.889166594,186.2647552,
1.890833378,186.396759,
1.892500043,185.7388153,
1.894166708,185.8942871,
1.895833373,186.5572357,
1.897499919,186.287674,
1.899166703,186.5163422,
1.900833368,186.1607361,
1.902500033,186.6784668,
1.904166698,186.7855377,
1.905833364,185.8266754,
1.907500029,185.2127533,
1.909166694,187.1141357,
1.910833359,186.0567322,
1.912500024,185.9446106,
1.914166689,186.0458221,
1.915833354,186.5522766,
1.917500019,186.0041504,
1.919166684,186.1040344,
1.920833349,186.581955,
1.922500014,185.1144867,
1.924166799,185.6390228,
1.925833344,185.2273407,
1.92750001,186.6339722,
1.929166675,185.8190155,
1.93083334,185.4705658,
1.932500124,186.1856232,
1.93416667,185.9584045,
1.935833335,185.9219055,
1.9375,185.7394562,
1.939166665,184.4136047,
1.940833449,186.4115448,
1.942499995,186.254303,
1.94416666,186.1756744,
1.945833325,185.4524689,
1.94749999,186.0701752,
1.949166775,187.0042572,
1.95083344,186.3130493,
1.952499986,185.9832458,
1.954166651,186.7893982,
1.955833316,185.3335266,
1.9575001,186.2362518,
1.959166765,186.3440857,
1.960833311,186.8624268,
1.962499976,185.6694031,
1.964166641,184.5877991,
1.965833426,184.8764191,
1.967500091,187.5265045,
1.969166636,186.1361084,
1.970833302,186.9763641,
1.972499967,186.3482971,
1.974166751,186.9845734,
1.975833416,185.3226776,
1.977500081,186.4526825,
1.979166627,185.4257355,
1.980833292,186.8191071,
1.982500076,186.0001984,
1.984166741,186.2866516,
1.985833406,186.1649933,
1.987499952,184.6332703,
1.989166617,185.3831329,
1.990833402,185.3210602,
1.992500067,185.1992188,
1.994166732,185.851181,
1.995833278,184.8951416,
1.997499943,185.4104614,
1.999166727,185.6171265,
2.000833273,186.2488861,
2.002500057,185.9056549,
2.004166603,186.9450531,
2.005833387,185.8807678,
2.007500172,186.5414276,
2.009166718,185.2732544,
2.010833263,185.4167786,
2.012500048,185.5416412,
2.014166594,185.4946289,
2.015833378,185.0216675,
2.017500162,186.264679,
2.019166708,185.8720398,
2.020833254,185.4502716,
2.022500038,184.5919037,
2.024166822,186.6697998,
2.025833368,185.0344086,
2.027499914,186.2604675,
2.029166698,185.394989,
2.030833244,186.0590515,
2.032500029,185.3421326,
2.034166813,185.7103729,
2.035833359,185.3626709,
2.037499905,186.7074432,
2.039166689,186.0595551,
2.040833473,185.4205017,
2.042500019,186.2317352,
2.044166803,186.7513733,
2.045833349,184.8686218,
2.047499895,185.6846924,
2.049166679,185.6958771,
2.050833464,186.6224365,
2.05250001,185.4278717,
2.054166555,185.3196106,
2.05583334,187.0428772,
2.057500124,185.9721832,
2.05916667,187.1169739,
2.060833454,186.6009521,
2.0625,186.1387634,
2.064166546,184.6980438,
2.06583333,184.0198975,
2.067500114,185.0842896,
2.06916666,186.3611145,
2.070833445,186.4465027,
2.07249999,185.4477234,
2.074166775,186.5784607,
2.075833321,185.1589813,
2.077500105,184.4649048,
2.079166651,185.1657257,
2.080833197,185.5343323,
2.082499981,185.6668243,
2.084166765,186.0137177,
2.085833311,185.5662537,
2.087500095,185.4236603,
2.089166641,185.2682037,
2.090833426,186.5496216,
2.092499971,185.146225,
2.094166756,186.5294342,
2.095833302,185.7771759,
2.097500086,184.2376862,
2.099166632,184.8397217,
2.100833416,185.1845245,
2.102499962,185.0332947,
2.104166746,185.9387054,
2.105833292,185.7729187,
2.107500076,185.7284546,
2.109166622,186.9460144,
2.110833406,186.2281189,
2.112499952,186.2122955,
2.114166737,186.1466522,
2.115833521,185.8646851,
2.117500067,184.5707703,
2.119166613,185.6349182,
2.120833397,186.5986786,
2.122499943,185.1264343,
2.124166727,185.2470551,
2.125833273,186.1322937,
2.127500057,186.4496765,
2.129166603,185.7642365,
2.130833387,186.4832764,
2.132500172,186.697876,
2.134166718,185.3714752,
2.135833502,186.7146759,
2.137500048,184.8516693,
2.139166832,185.67453,
2.140833378,184.5189362,
2.142500162,184.7048035,
2.144166708,185.3080597,
2.145833254,185.1240387,
2.147500038,185.2525787,
2.149166584,186.6837158,
2.150833368,185.909729,
2.152500153,186.2219696,
2.154166698,185.5630646,
2.155833483,185.6828461,
2.157500029,187.2588501,
2.159166813,185.5919952,
2.160833597,184.6025391,
2.162499905,186.2080841,
2.164166689,185.6593475,
2.165833235,184.9077606,
2.167500019,185.0932465,
2.169166803,185.3084717,
2.170833349,186.0735626,
2.172500134,186.3412933,
2.174166679,184.9435883,
2.175833464,185.431015,
2.177500248,185.9854431,
2.179166555,184.9158936,
2.18083334,186.1387177,
2.182499886,185.7466888,
2.18416667,186.337326,
2.185833454,185.303421,
2.1875,185.0222321,
2.189166784,185.5096283,
2.19083333,185.30159,
2.192500114,184.3551025,
2.194166899,184.5413361,
2.195833445,183.8523102,
2.19749999,184.6614075,
2.199166536,185.5637512,
2.200833321,185.660675,
2.202500105,186.5483246,
2.204166651,184.9762268,
2.205833435,185.5661469,
2.207499981,186.1713257,
2.209166765,184.7134552,
2.210833549,185.4849243,
2.212500095,185.8586884,
2.21416688,185.2505493,
2.215833187,186.4512024,
2.217499971,184.7699127,
2.219166756,184.5510559,
2.220833302,184.5296326,
2.222500086,185.3203888,
2.224166632,184.9766083,
2.225833416,186.0941162,
2.2275002,185.1209564,
2.229166746,184.8587036,
2.23083353,185.9338379,
2.232499838,184.6055908,
2.234166622,185.962616,
2.235833406,183.4405212,
2.237499952,184.9925385,
2.239166737,184.056778,
2.240833282,184.1752777,
2.242500067,185.4830017,
2.244166851,185.4969482,
2.245833397,184.0720825,
2.247500181,184.2041016,
2.249166727,186.3549042,
2.250833273,185.6362915,
2.252500057,184.5127411,
2.254166603,185.6538696,
2.255833387,185.7141113,
2.257499933,184.6287384,
2.259166718,185.7909851,
2.260833502,185.0563049,
2.262500048,184.6147308,
2.264166832,185.6047363,
2.265833378,184.9850922,
2.267500162,185.5784912,
2.269166708,185.8678284,
2.270833254,184.9366913,
2.272500038,185.4358215,
2.274166584,185.0471344,
2.275833368,185.2358551,
2.277500153,185.2851563,
2.279166698,185.6711731,
2.280833483,185.4673615,
2.282500029,183.8332825,
2.284166813,185.8910217,
2.285833597,184.8933868,
2.287499905,185.3600769,
2.289166689,183.3764648,
2.290833235,183.7805023,
2.292500019,184.9094391,
2.294166803,184.7699585,
2.295833349,184.2882233,
2.297500134,185.0911255,
2.299166679,185.0513,
2.300833464,184.5478668,
2.302500248,185.9189301,
2.304166555,185.5789795,
2.30583334,183.7171326,
2.307499886,186.3885193,
2.30916667,183.9216461,
2.310833454,183.6543274,
2.3125,185.1832275,
2.314166784,184.3155212,
2.31583333,184.6943207,
2.317500114,184.6484375,
2.319166899,185.1522369,
2.320833445,184.0325623,
2.32249999,185.9206696,
2.324166536,184.1032562,
2.325833321,184.5564575,
2.327500105,184.1398926,
2.329166651,184.7620392,
2.330833435,185.5692596,
2.332499981,185.0155182,
2.334166765,184.1850128,
2.335833549,184.2031097,
2.337500095,185.5225677,
2.33916688,184.3670044,
2.340833187,185.8501587,
2.342499971,185.6332092,
2.344166756,185.1348724,
2.345833302,185.3863525,
2.347500086,183.6112823,
2.349166632,185.1438751,
2.350833416,184.9781036,
2.3525002,184.6929016,
2.354166746,184.46521,
2.35583353,185.0256195,
2.357499838,185.3318024,
2.359166622,184.4351349,
2.360833406,183.5216675,
2.362499952,184.3154297,
2.364166737,185.226593,
2.365833282,186.5365143,
2.367500067,184.5309143,
2.369166851,184.399231,
2.370833397,184.62323,
2.372500181,186.1129456,
2.374166727,185.2924805,
2.375833273,183.3917694,
2.377500057,185.1265717,
2.379166603,183.9788666,
2.380833387,185.4233398,
2.382499933,184.64151,
2.384166718,184.8596497,
2.385833502,184.9056396,
2.387500048,184.3642426,
2.389166832,183.9019318,
2.390833378,185.0675201,
2.392500162,184.2544403,
2.394166708,183.6228943,
2.395833254,185.5769196,
2.397500038,184.6515045,
2.399166584,183.5895233,
2.400833368,184.5144196,
2.402500153,184.5708618,
2.404166698,184.964325,
2.405833483,183.0939636,
2.407500029,184.3998566,
2.409166813,184.8814697,
2.410833597,185.8402405,
2.412499905,184.5719604,
2.414166689,184.0190125,
2.415833235,185.468399,
2.417500019,183.5924377,
2.419166803,185.1236267,
2.420833349,183.9067688,
2.422500134,183.8282166,
2.424166679,184.5717163,
2.425833464,184.2432404,
2.427500248,185.5573883,
2.429166555,183.9528656,
2.43083334,185.1077576,
2.432499886,185.1511383,
2.43416667,184.2849121,
2.435833454,184.3902283,
2.4375,184.6795044,
2.439166784,185.2011261,
2.44083333,186.0310822,
2.442500114,183.5499573,
2.444166899,185.3007813,
2.445833445,184.713913,
2.44749999,184.7936707,
2.449166536,184.6946716,
2.450833321,184.8479309,
2.452500105,184.9955902,
2.454166651,184.9117432,
2.455833435,184.1307983,
2.457499981,183.8520355,
2.459166765,183.6870117,
2.460833549,184.8320007,
2.462500095,185.5662231,
2.46416688,184.4305725,
2.465833187,185.3515167,
2.467499971,183.866806,
2.469166756,184.9311829,
2.470833302,185.4031677,
2.472500086,184.6141052,
2.474166632,185.3193665,
2.475833416,184.6695251,
2.4775002,184.140152,
2.479166746,184.6582947,
2.48083353,184.631546,
2.482499838,184.1758423,
2.484166622,185.3253784,
2.485833406,185.1651154,
2.487499952,184.7398224,
2.489166737,184.2391968,
2.490833282,184.3634033,
2.492500067,183.4738159,
2.494166851,184.8362732,
2.495833397,184.14151,
2.497500181,184.4536591,
2.499166727,183.6991272,
2.500833273,183.6789551,
2.502500057,184.5047607,
2.504166603,185.0305328,
2.505833387,184.5666046,
2.507499933,184.6951141,
2.509166718,185.3841095,
2.510833502,184.5247345,
2.512500048,183.714447,
2.514166832,184.469162,
2.515833378,184.4408569,
2.517500162,185.5847168,
2.519166708,185.4230042,
2.520833254,184.9296112,
2.522500038,183.4230347,
2.524166584,186.6562347,
2.525833368,184.2548218,
2.527500153,183.5890503,
2.529166698,184.3131866,
2.530833483,185.2741852,
2.532500029,184.8804016,
2.534166813,183.8211517,
2.535833597,184.7394562,
2.537499905,184.4603882,
2.539166689,184.4688416,
2.540833235,184.5494537,
2.542500019,184.5419312,
2.544166803,185.5010681,
2.545833349,184.6581116,
2.547500134,184.3529053,
2.549166679,184.629425,
2.550833464,185.4052887,
2.552500248,184.2970581,
2.554166555,184.0595093,
2.55583334,184.2400055,
2.557499886,185.2077942,
2.55916667,183.448822,
2.560833454,183.8393097,
2.5625,184.9758606,
2.564166784,185.6899719,
2.56583333,184.5614777,
2.567500114,182.9258881,
2.569166899,184.0616608,
2.570833445,183.3903961,
2.57249999,184.9953766,
2.574166536,185.7769928,
2.575833321,185.082428,
2.577500105,184.2207184,
2.579166651,184.1177063,
2.580833435,182.4127655,
2.582499981,184.8009949,
2.584166765,183.6896362,
2.585833549,185.8693085,
2.587500095,184.439682,
2.58916688,183.7126923,
2.590833187,184.9178772,
2.592499971,183.9885406,
2.594166756,184.3345337,
2.595833302,184.0549774,
2.597500086,184.667038,
2.599166632,183.9361267,
2.600833416,185.7619476,
2.6025002,184.3073883,
2.604166746,183.9329987,
2.60583353,184.0536194,
2.607499838,184.021698,
2.609166622,183.8234406,
2.610833406,183.7306213,
2.612499952,184.1828766,
2.614166737,183.3618317,
2.615833282,184.3967896,
2.617500067,185.6747131,
2.619166851,185.3720703,
2.620833397,184.8432159,
2.622500181,184.2558746,
2.624166727,184.4690704,
2.625833273,184.9309845,
2.627500057,185.6997528,
2.629166603,184.7429962,
2.630833387,185.0237579,
2.632499933,183.4958801,
2.634166718,184.2186737,
2.635833502,184.204895,
2.637500048,184.5990143,
2.639166832,183.4087219,
2.640833378,184.8830109,
2.642500162,184.0642548,
2.644166708,184.9355927,
2.645833254,184.2210083,
2.647500038,184.2731171,
2.649166584,184.3675537,
2.650833368,183.6941986,
2.652500153,185.900528,
2.654166698,185.6946259,
2.655833483,185.5141296,
2.657500029,185.0754852,
2.659166813,185.2436371,
2.660833597,185.3106384,
2.662499905,187.0247498,
2.664166689,183.2861023,
2.665833235,185.2400818,
2.667500019,183.4770203,
2.669166803,184.106308,
2.670833349,186.8237915,
2.672500134,183.2806549,
2.674166679,184.9233551,
2.675833464,183.1571503,
2.677500248,183.3782349,
2.679166555,183.3061523,
2.68083334,183.9210358,
2.682499886,184.1642456,
2.68416667,182.8177032,
2.685833454,183.2738953,
2.6875,184.775177,
2.689166784,184.8473816,
2.69083333,184.278183,
2.692500114,184.2610474,
2.694166899,184.0583954,
2.695833445,183.4859772,
2.69749999,183.7353668,
2.699166536,184.4437256,
2.700833321,184.3340912,
2.702500105,184.0184631,
2.704166651,184.237381,
2.705833435,183.4633636,
2.707499981,182.6557159,
2.709166765,184.3288422,
2.710833549,183.903656,
2.712500095,183.811264,
2.71416688,183.1909943,
2.715833187,183.6843567,
2.717499971,185.0710602,
2.719166756,184.0452271,
2.720833302,184.2719879,
2.722500086,185.1193695,
2.724166632,184.0330658,
2.725833416,183.274826,
2.7275002,184.2232208,
2.729166746,183.9312744,
2.73083353,184.9406128,
2.732499838,185.0564575,
2.734166622,184.1956177,
2.735833406,184.0390015,
2.737499952,184.1657562,
2.739166737,185.0759277,
2.740833282,183.7082062,
2.742500067,182.338501,
2.744166851,183.6306152,
2.745833397,182.6128082,
2.747500181,184.7916412,
2.749166727,184.5567017,
2.750833273,184.5414276,
2.752500057,183.0648956,
2.754166603,183.7748413,
2.755833387,183.7743225,
2.757499933,184.3358459,
2.759166718,184.6006622,
2.760833502,183.7959442,
2.762500048,183.8479309,
2.764166832,183.1577148,
2.765833378,183.7001038,
2.767500162,184.0318604,
2.769166708,183.2447052,
2.770833254,183.2009735,
2.772500038,186.6240082,
2.774166584,183.4992065,
2.775833368,183.3525696,
2.777500153,184.2688446,
2.779166698,184.4291534,
2.780833483,186.2320709,
2.782500029,184.3771362,
2.784166813,182.1973572,
2.785833597,185.5249634,
2.787499905,183.9055939,
2.789166689,185.332962,
2.790833235,182.85289,
2.792500019,184.4781799,
2.794166803,184.5245056,
2.795833349,184.5169525,
2.797500134,182.7108612,
2.799166679,185.0496826,
2.800833464,184.0832672,
2.802500248,183.3475647,
2.804166555,183.3297729,
2.80583334,183.4693604,
2.807499886,184.5630188,
2.80916667,183.701416,
2.810833454,184.0587463,
2.8125,183.6445465,
2.814166784,183.9658813,
2.81583333,184.8703308,
2.817500114,182.6473083,
2.819166899,184.4187317,
2.820833445,183.6633606,
2.82249999,184.9425812,
2.824166536,183.8287659,
2.825833321,184.0343018,
2.827500105,183.6266327,
2.829166651,184.5595245,
2.830833435,183.2195129,
2.832499981,184.0596008,
2.834166765,183.8599701,
2.835833549,183.6899414,
2.837500095,184.2106934,
2.83916688,183.151062,
2.840833187,182.8101959,
2.842499971,184.1698303,
2.844166756,185.003006,
2.845833302,183.7706299,
2.847500086,183.3213806,
2.849166632,183.1889038,
2.850833416,184.1484985,
2.8525002,185.0812073,
2.854166746,184.1877747,
2.85583353,183.8212891,
2.857499838,183.4054871,
2.859166622,183.6257629,
2.860833406,185.3066254,
2.862499952,183.3964081,
2.864166737,183.5117493,
2.865833282,184.0958557,
2.867500067,182.463974,
2.869166851,184.0123901,
2.870833397,183.6633911,
2.872500181,184.4960632,
2.874166727,184.5491486,
2.875833273,184.4302979,
2.877500057,184.3287659,
2.879166603,184.3707733,
2.880833387,182.9171906,
2.882499933,183.8777924,
2.884166718,183.4663391,
2.885833502,184.2963867,
2.887500048,183.1985626,
2.889166832,184.7088623,
2.890833378,184.105896,
2.892500162,183.9359436,
2.894166708,184.2218475,
2.895833254,181.9779816,
2.897500038,184.058197,
2.899166584,185.1557922,
2.900833368,184.3369751,
2.902500153,183.3655701,
2.904166698,184.5876007,
2.905833483,183.8261871,
2.907500029,183.7697144,
2.909166813,182.9915466,
2.910833597,182.8046722,
2.912499905,182.2065277,
2.914166689,183.746994,
2.915833235,183.7207336,
2.917500019,184.9764557,
2.919166803,184.0012817,
2.920833349,183.6599274,
2.922500134,183.4146118,
2.924166679,183.117981,
2.925833464,183.3326416,
2.927500248,184.6174622,
2.929166555,185.2005615,
2.93083334,184.0680695,
2.932499886,182.7014923,
2.93416667,184.8211365,
2.935833454,184.0407562,
2.9375,183.7729797,
2.939166784,184.0783691,
2.94083333,183.4075317,
2.942500114,183.7825165,
2.944166899,184.9039001,
2.945833445,183.1267395,
2.94749999,184.5135345,
2.949166536,182.7026825,
2.950833321,184.1125336,
2.952500105,184.1312714,
2.954166651,184.5033112,
2.955833435,182.8545227,
2.957499981,184.8901215,
2.959166765,182.8573456,
2.960833549,184.629303,
2.962500095,183.8504639,
2.96416688,184.1519928,
2.965833187,183.7404175,
2.967499971,183.8344269,
2.969166756,183.4230652,
2.970833302,182.7115936,
2.972500086,183.8060913,
2.974166632,185.8429413,
2.975833416,181.4792633,
2.9775002,184.4091492,
2.979166746,184.3994751,
2.98083353,183.8302917,
2.982499838,183.5445557,
2.984166622,184.184845,
2.985833406,184.1702423,
2.987499952,182.5323486,
2.989166737,183.4161224,
2.990833282,185.1340027,
2.992500067,184.0028839,
2.994166851,184.5983429,
2.995833397,182.7568665,
2.997500181,182.3038177,
2.999166727,183.2743835,
3.000833273,184.5301971,
3.002500057,183.5552826,
3.004166603,183.4133759,
3.005833387,182.1346436,
3.007499933,184.450592,
3.009166718,184.3873901,
3.010833502,183.9590759,
3.012500048,183.5488586,
3.014166832,183.3600311,
3.015833378,183.4227142,

