1,,
Time (min),Intensity (a.u.),
0.0008333333535,47.25307083,
0.002500000177,46.62966919,
0.004166666884,46.57279587,
0.005833333358,47.47327042,
0.007500000298,46.83187485,
0.009166667238,47.28672409,
0.01083333418,47.15362167,
0.01250000019,46.73085785,
0.01416666713,46.81325531,
0.01583333313,46.95779037,
0.01750000194,46.85051727,
0.01916666701,46.61694717,
0.02083333395,46.9341507,
0.02250000089,46.58676147,
0.02416666783,47.36126709,
0.02583333477,46.94114685,
0.02749999985,46.59638596,
0.02916666679,47.03400421,
0.03083333373,47.09755325,
0.03250000253,47.20979691,
0.03416666761,46.10993195,
0.03583333641,46.93642426,
0.03750000149,46.69367599,
0.03916667029,46.7460289,
0.04083333537,47.00410461,
0.04250000045,47.33834457,
0.04416666925,46.22781754,
0.04583333433,46.15106201,
0.04750000313,46.66844177,
0.04916666821,46.84224701,
0.05083333328,47.12099457,
0.05250000209,46.56364822,
0.05416666716,46.50542068,
0.05583333597,46.45397186,
0.05750000104,46.69713211,
0.05916666612,46.88642502,
0.06083333492,46.74153519,
0.0625,46.35471344,
0.06416667253,46.74193573,
0.0658333376,46.98962784,
0.06750000268,46.17802811,
0.06916666776,46.72128296,
0.07083333284,47.31978607,
0.07249999791,46.59638596,
0.07416667044,46.74989319,
0.07583333552,46.36295319,
0.0775000006,46.66457748,
0.07916666567,46.51489258,
0.08083333075,46.50034332,
0.08250000328,46.51966095,
0.08416666836,46.99685287,
0.08583333343,46.89115524,
0.08749999851,46.12312317,
0.08916666359,46.7290802,
0.09083333611,46.99768066,
0.09250000119,46.14978409,
0.09416666627,46.46161652,
0.09583333135,46.44293213,
0.09749999642,46.97164917,
0.09916666895,46.90629959,
0.100833334,46.43655777,
0.1024999991,47.11159515,
0.1041666642,46.12377548,
0.1058333293,47.39211655,
0.1075000018,46.97899628,
0.1091666669,46.51954269,
0.1108333319,46.30274582,
0.112499997,46.88175583,
0.1141666621,46.75018311,
0.1158333346,46.78265381,
0.1174999997,46.39315414,
0.1191666648,46.4548378,
0.1208333299,46.33607864,
0.1224999949,46.88840103,
0.1241666749,46.3276329,
0.1258333325,47.2635231,
0.1274999976,47.27819824,
0.1291666627,46.9209938,
0.1308333278,46.35218811,
0.1325000077,46.96669769,
0.1341666728,46.11805725,
0.1358333379,46.06879044,
0.137500003,46.71282196,
0.1391666681,46.60670471,
0.1408333331,46.78751373,
0.1424999982,47.03126144,
0.1441666782,47.32738876,
0.1458333284,46.99039078,
0.1475000083,46.84743881,
0.1491666585,47.17036438,
0.1508333385,46.99120712,
0.1525000036,46.86194229,
0.1541666687,46.75944138,
0.1558333337,47.03878784,
0.1574999988,47.10206223,
0.1591666639,45.89947128,
0.1608333439,46.93611908,
0.162499994,46.68758392,
0.164166674,47.31344986,
0.1658333242,47.04054642,
0.1675000042,47.1886673,
0.1691666692,46.43688583,
0.1708333343,46.61365128,
0.1724999994,46.52887344,
0.1741666645,46.79808807,
0.1758333296,46.5573616,
0.1775000095,46.37564087,
0.1791666597,47.25493622,
0.1808333397,47.21588516,
0.1824999899,46.58010101,
0.1841666698,46.73426437,
0.1858333498,47.07467651,
0.1875,47.24469757,
0.18916668,46.63487244,
0.1908333302,47.15763474,
0.1925000101,46.29360962,
0.1941666752,46.74560928,
0.1958333403,46.38383102,
0.1975000054,46.81624603,
0.1991666704,46.56517029,
0.2008333355,47.16473389,
0.2025000155,46.52141571,
0.2041666657,47.01939774,
0.2058333457,47.36414337,
0.2074999958,46.71517563,
0.2091666758,46.3819313,
0.2108333409,47.16612625,
0.212500006,46.59761047,
0.214166671,47.54782104,
0.2158333361,46.73525238,
0.2175000012,46.85568237,
0.2191666812,47.08921432,
0.2208333313,47.20516586,
0.2225000113,46.38189316,
0.2241666615,46.69281387,
0.2258333415,46.91443253,
0.2275000066,46.97458267,
0.2291666716,46.68170929,
0.2308333367,46.93106461,
0.2325000018,47.22983551,
0.2341666669,46.53059006,
0.2358333468,46.93016434,
0.237499997,46.97768402,
0.239166677,46.11204147,
0.2408333272,46.20721817,
0.2425000072,46.84699249,
0.2441666722,46.57602692,
0.2458333373,46.51604843,
0.2475000024,46.60229874,
0.2491666675,46.53985596,
0.2508333325,46.13819504,
0.2524999976,46.61818695,
0.2541666627,46.41385269,
0.2558333278,45.88134384,
0.2574999928,45.99332047,
0.2591666579,46.311409,
0.2608333528,46.03433228,
0.2624999881,46.58337784,
0.264166683,46.2037468,
0.2658333182,46.58299637,
0.2675000131,46.46369553,
0.2691666484,46.63725662,
0.2708333433,46.43440628,
0.2725000083,46.43551254,
0.2741666734,46.93392563,
0.2758333385,46.53239441,
0.2775000036,46.48628235,
0.2791666687,46.35121155,
0.2808333337,46.49011993,
0.2824999988,46.74959564,
0.2841666937,46.29447556,
0.285833329,46.56001663,
0.287499994,46.76525497,
0.2891666591,46.49403381,
0.290833354,46.90386963,
0.2925000191,46.93424988,
0.2941666543,46.89635468,
0.2958333194,45.98331833,
0.2975000143,46.60228729,
0.2991666794,46.68623734,
0.3008333445,46.77500916,
0.3024999797,46.35216141,
0.3041666746,47.14313126,
0.3058333397,46.60022736,
0.3075000048,46.43836975,
0.3091666996,46.14726639,
0.3108333349,47.10202789,
0.3125,46.84101105,
0.3141666651,46.99502945,
0.31583336,46.82501221,
0.317500025,46.61930466,
0.3191666603,46.91769028,
0.3208333254,46.40444183,
0.3225000203,46.42797852,
0.3241666853,46.91095734,
0.3258333504,46.86600494,
0.3274999857,46.37207031,
0.3291666806,46.74645615,
0.3308333457,46.7181778,
0.3325000107,46.63985062,
0.3341666758,46.67880249,
0.3358333409,46.15685654,
0.337500006,46.34319687,
0.339166671,46.79588318,
0.3408333361,46.71996689,
0.342500031,46.78763199,
0.3441666663,46.7473793,
0.3458333313,47.11925888,
0.3474999964,46.88819122,
0.3491666913,46.61375809,
0.3508333564,46.76610947,
0.3524999917,46.75110245,
0.3541666567,46.33796692,
0.3558333516,46.5010643,
0.3575000167,46.78513718,
0.3591666818,46.94282913,
0.360833317,46.68442154,
0.3625000119,46.70976639,
0.364166677,46.28520584,
0.3658333421,47.3024025,
0.3675000072,46.5438652,
0.3691666722,46.44911575,
0.3708333373,47.35802078,
0.3725000024,46.80141449,
0.3741666675,46.75727463,
0.3758333623,47.1228447,
0.3774999976,47.33024979,
0.3791666627,47.19486618,
0.3808333278,45.99132538,
0.3825000226,47.07869339,
0.3841666877,46.38350677,
0.385833323,46.49128342,
0.3874999881,46.6149025,
0.389166683,46.64380264,
0.390833348,47.24143982,
0.3925000131,47.20420837,
0.3941666484,46.28403091,
0.3958333433,46.32151031,
0.3975000083,47.01594543,
0.3991666734,46.22132874,
0.4008333385,47.1123085,
0.4025000036,46.62810898,
0.4041666687,46.8639679,
0.4058333337,46.80516052,
0.4074999988,46.6737442,
0.4091666937,47.00263596,
0.410833329,46.33473969,
0.412499994,46.85874176,
0.4141666591,47.2869072,
0.415833354,46.88985062,
0.4175000191,46.81626511,
0.4191666543,46.52883148,
0.4208333194,46.93733597,
0.4225000143,46.56722641,
0.4241666794,47.08192444,
0.4258333445,47.30387878,
0.4274999797,46.34786606,
0.4291666746,47.22039413,
0.4308333397,47.27873611,
0.4325000048,46.74032593,
0.4341666996,46.84091949,
0.4358333349,46.73471451,
0.4375,46.61688995,
0.4391666651,46.36001968,
0.44083336,46.42477417,
0.442500025,46.49880981,
0.4441666603,46.59085464,
0.4458333254,46.46899796,
0.4475000203,46.7412262,
0.4491666853,46.69830704,
0.4508333504,46.74458313,
0.4524999857,46.4907608,
0.4541666806,46.42022324,
0.4558333457,45.96940613,
0.4575000107,47.15147781,
0.4591666758,46.94696426,
0.4608333409,46.32519531,
0.462500006,46.6654129,
0.464166671,46.28896713,
0.4658333361,47.06016159,
0.467500031,46.49534988,
0.4691666663,46.86534882,
0.4708333313,46.74471283,
0.4724999964,46.25924683,
0.4741666913,46.87068939,
0.4758333564,47.13024521,
0.4774999917,46.85733032,
0.4791666567,46.7351532,
0.4808333516,46.27835846,
0.4825000167,46.69095612,
0.4841666818,46.51660538,
0.485833317,46.12382126,
0.4875000119,47.35825348,
0.489166677,46.12426376,
0.4908333421,46.66558838,
0.4925000072,46.71327591,
0.4941666722,46.11535645,
0.4958333373,46.89582825,
0.4975000024,46.17008209,
0.4991666675,46.88285828,
0.5008333325,46.42134094,
0.5024999976,46.27114868,
0.5041666627,46.68380356,
0.5058333278,46.97389984,
0.5074999928,46.71954346,
0.5091666579,46.43189621,
0.510833323,46.64333344,
0.5124999881,47.26583862,
0.5141666532,46.89392853,
0.5158333182,46.60822296,
0.5175000429,46.9317894,
0.5191666484,46.77156448,
0.5208333135,46.92280579,
0.5224999785,46.58414459,
0.5241667032,46.7026062,
0.5258333683,46.23575592,
0.5274999738,46.59896851,
0.5291666389,47.04648972,
0.5308333635,46.83093643,
0.5325000286,47.03000641,
0.5341666341,46.70429993,
0.5358333588,46.56245041,
0.5375000238,45.87166595,
0.5391666889,46.55897903,
0.540833354,46.44132996,
0.5424999595,46.50699615,
0.5441666842,46.94779587,
0.5458333492,46.2296257,
0.5475000143,46.65837097,
0.5491666794,46.54079437,
0.5508333445,47.23450851,
0.5525000095,46.6056366,
0.5541666746,46.75849915,
0.5558333993,46.33404541,
0.5575000048,46.49711227,
0.5591666698,46.87563705,
0.5608333349,47.19696426,
0.5625,46.66069412,
0.5641667247,46.81391907,
0.5658333302,46.58259583,
0.5674999952,46.73265457,
0.5691667199,47.24105835,
0.5708333254,47.18397522,
0.5725000501,47.16981125,
0.5741666555,46.78877258,
0.5758333206,47.36237335,
0.5775000453,46.8182106,
0.5791666508,46.33120346,
0.5808333755,46.1942749,
0.5825000405,46.47099686,
0.584166646,46.9127121,
0.5858333707,47.0566864,
0.5874999762,46.05455017,
0.5891667008,46.98206329,
0.5908333659,46.22608185,
0.5924999714,46.56542969,
0.5941666961,47.15127945,
0.5958333611,46.71888351,
0.5975000262,46.7468605,
0.5991666913,46.92564011,
0.6008332968,47.01330948,
0.6025000215,46.929142,
0.6041666865,46.40827179,
0.6058333516,46.25131607,
0.6075000167,46.70138168,
0.6091666818,46.85850525,
0.6108333468,46.48479462,
0.6125000119,46.5966568,
0.614166677,47.14857864,
0.6158333421,46.22451401,
0.6175000072,46.87099457,
0.6191666722,47.03456879,
0.6208333373,46.85563278,
0.622500062,47.15578842,
0.6241666675,46.52215195,
0.6258333325,47.21188354,
0.6274999976,46.254879,
0.6291666627,46.59974289,
0.6308333874,46.72642517,
0.6324999928,47.19424057,
0.6341666579,46.98173523,
0.6358333826,46.7899437,
0.6374999881,46.37523651,
0.6391667128,46.46762848,
0.6408333182,46.42167282,
0.6424999833,46.76125336,
0.644166708,47.12502289,
0.6458333135,46.59270096,
0.6475000381,47.03704834,
0.6491667032,46.91871262,
0.6508333087,46.84108353,
0.6525000334,47.07944489,
0.6541666389,46.39651108,
0.6558333635,47.04539871,
0.6575000286,46.43918991,
0.6591666341,46.81799698,
0.6608333588,46.36909485,
0.6625000238,46.07450104,
0.6641666889,46.4830513,
0.665833354,46.26988602,
0.6674999595,46.98783112,
0.6691666842,47.18912506,
0.6708333492,47.17966461,
0.6725000143,46.76373672,
0.6741666794,46.68867111,
0.6758333445,47.41968536,
0.6775000095,46.82683182,
0.6791666746,45.9571228,
0.6808333993,46.32541656,
0.6825000048,47.29328156,
0.6841666698,47.06700516,
0.6858333349,47.20661163,
0.6875,46.41600037,
0.6891667247,46.44049072,
0.6908333302,45.89387512,
0.6924999952,46.95480347,
0.6941667199,46.51909256,
0.6958333254,46.37784576,
0.6975000501,47.18832016,
0.6991666555,46.93741989,
0.7008333206,46.54180527,
0.7025000453,46.27534103,
0.7041666508,46.47120667,
0.7058333755,46.5738945,
0.7075000405,46.1289444,
0.709166646,46.92818451,
0.7108333707,46.35835648,
0.7124999762,47.59259033,
0.7141667008,46.50052261,
0.7158333659,46.75697708,
0.7174999714,47.00716019,
0.7191666961,46.39283752,
0.7208333611,46.95920181,
0.7225000262,47.03383636,
0.7241666913,46.61057281,
0.7258332968,46.53106308,
0.7275000215,46.83325577,
0.7291666865,46.79741287,
0.7308333516,46.12103653,
0.7325000167,46.62446213,
0.7341666818,47.02404022,
0.7358333468,46.75230789,
0.7375000119,47.35464478,
0.739166677,46.67436981,
0.7408333421,46.87936401,
0.7425000072,46.11553192,
0.7441666722,47.06470108,
0.7458333373,46.58885193,
0.747500062,47.22084045,
0.7491666675,46.60886383,
0.7508333325,47.18266678,
0.7524999976,46.27065659,
0.7541666627,46.4826355,
0.7558333874,46.42425537,
0.7574999928,46.32134628,
0.7591666579,46.92024231,
0.7608333826,46.88962936,
0.7624999881,46.61687088,
0.7641667128,47.01283646,
0.7658333182,46.67426682,
0.7674999833,47.16353607,
0.769166708,47.21063614,
0.7708333135,47.40543365,
0.7725000381,47.14855194,
0.7741667032,46.95781708,
0.7758333087,46.56271362,
0.7775000334,46.23553848,
0.7791666389,46.9716301,
0.7808333635,46.18819427,
0.7825000286,47.00990295,
0.7841666341,46.72607803,
0.7858333588,46.96980667,
0.7875000238,46.64856339,
0.7891666889,46.85947418,
0.790833354,46.30007553,
0.7924999595,46.70343781,
0.7941666842,46.73537827,
0.7958333492,46.93134689,
0.7975000143,47.00867081,
0.7991666794,46.99433136,
0.8008333445,47.08173752,
0.8025000095,46.18859482,
0.8041666746,47.32751846,
0.8058333993,46.99333572,
0.8075000048,46.75072861,
0.8091666698,46.77458191,
0.8108333349,46.21861267,
0.8125,46.4886322,
0.8141667247,45.9226265,
0.8158333302,46.75766754,
0.8174999952,47.11248779,
0.8191667199,46.95445633,
0.8208333254,46.51966858,
0.8225000501,46.36942673,
0.8241666555,47.00148773,
0.8258333206,47.02760696,
0.8275000453,46.65908432,
0.8291666508,46.66529083,
0.8308333755,46.60392761,
0.8325000405,46.32621384,
0.834166646,46.40431595,
0.8358333707,46.66686249,
0.8374999762,46.67424393,
0.8391667008,46.92316818,
0.8408333659,46.96692657,
0.8424999714,46.99058914,
0.8441666961,46.16593552,
0.8458333611,47.33121872,
0.8475000262,46.87252426,
0.8491666913,46.69348526,
0.8508332968,46.87029648,
0.8525000215,46.52842712,
0.8541666865,46.92801666,
0.8558333516,46.3515892,
0.8575000167,46.17369843,
0.8591666818,46.83763885,
0.8608333468,47.10563278,
0.8625000119,46.12912369,
0.864166677,46.76688766,
0.8658333421,46.49868393,
0.8675000072,47.33162689,
0.8691666722,46.04133224,
0.8708333373,46.84969711,
0.872500062,47.22215652,
0.8741666675,45.79457855,
0.8758333325,46.39493179,
0.8774999976,46.47151947,
0.8791666627,47.42201233,
0.8808333874,46.6132431,
0.8824999928,46.40802765,
0.8841666579,47.12727737,
0.8858333826,46.61824799,
0.8874999881,47.1349144,
0.8891667128,47.0361824,
0.8908333182,46.69195175,
0.8924999833,46.93408585,
0.894166708,46.59706497,
0.8958333135,46.65055847,
0.8975000381,46.72420502,
0.8991667032,46.81600952,
0.9008333087,46.93632889,
0.9025000334,47.6676445,
0.9041666389,46.8147049,
0.9058333635,46.94329453,
0.9075000286,46.66041565,
0.9091666341,47.80713272,
0.9108333588,46.87591934,
0.9125000238,46.85987854,
0.9141666889,47.11634064,
0.915833354,47.05030823,
0.9174999595,46.59919739,
0.9191666842,46.747715,
0.9208333492,47.22056961,
0.9225000143,47.16735077,
0.9241666794,46.97809982,
0.9258333445,46.59805679,
0.9275000095,47.39952087,
0.9291666746,46.17076111,
0.9308333993,47.15925598,
0.9325000048,46.94171906,
0.9341666698,46.75146866,
0.9358333349,46.13779449,
0.9375,46.96091461,
0.9391667247,46.68647003,
0.9408333302,47.07217407,
0.9424999952,47.12667847,
0.9441667199,47.02230072,
0.9458333254,47.109272,
0.9475000501,46.53956604,
0.9491666555,46.73629761,
0.9508333206,47.21334457,
0.9525000453,46.90568161,
0.9541666508,46.210289,
0.9558333755,46.4648819,
0.9575000405,46.79210663,
0.959166646,47.1800766,
0.9608333707,46.09530258,
0.9624999762,46.74534607,
0.9641667008,47.06995392,
0.9658333659,46.53534317,
0.9674999714,46.75813675,
0.9691666961,46.67849731,
0.9708333611,46.94983292,
0.9725000262,46.43778229,
0.9741666913,47.06167603,
0.9758332968,46.78456116,
0.9775000215,46.6582756,
0.9791666865,46.4812851,
0.9808333516,45.88595581,
0.9825000167,46.74128723,
0.9841666818,46.83794785,
0.9858333468,46.5011673,
0.9875000119,46.42984772,
0.989166677,46.86649704,
0.9908333421,46.37615967,
0.9925000072,46.73175049,
0.9941666722,46.4642868,
0.9958333373,46.96579361,
0.997500062,46.90127182,
0.9991666675,46.99201202,
1.000833273,46.58769226,
1.002500057,47.14833832,
1.004166722,47.10444641,
1.005833387,47.14966583,
1.007500052,46.53833008,
1.009166598,46.46069336,
1.010833383,46.69430542,
1.012500048,46.31320953,
1.014166713,46.94939804,
1.015833378,46.26047897,
1.017500043,47.00331116,
1.019166708,46.59140396,
1.020833373,46.18792725,
1.022500038,46.35691452,
1.024166703,46.3886528,
1.025833368,47.00483322,
1.027500033,46.28446579,
1.029166698,46.62814713,
1.030833364,46.3829689,
1.032500029,46.87509155,
1.034166694,46.61117554,
1.035833359,46.74880219,
1.037500024,46.53210831,
1.039166689,46.82136536,
1.040833354,46.76545715,
1.042500019,47.39953995,
1.044166684,46.78890991,
1.045833349,46.4225769,
1.047500014,46.80527115,
1.049166679,46.216465,
1.050833344,46.448349,
1.05250001,46.2193718,
1.054166675,46.4190979,
1.05583334,46.44921875,
1.057500005,46.71014404,
1.05916667,46.24076843,
1.060833335,46.2017746,
1.0625,47.11422348,
1.064166665,47.27467728,
1.06583333,47.14195633,
1.067499995,47.09365463,
1.06916666,46.72735214,
1.070833325,46.84262848,
1.07249999,46.73018265,
1.074166775,47.05221176,
1.07583344,46.85326004,
1.077499986,46.61879349,
1.079166651,46.92575073,
1.080833316,46.80823135,
1.0825001,46.21155548,
1.084166765,46.88721085,
1.085833311,46.10142517,
1.087499976,47.12076187,
1.089166641,46.7390976,
1.090833426,46.77748871,
1.092500091,46.92402267,
1.094166636,45.91213989,
1.095833302,47.45645905,
1.097499967,46.80981445,
1.099166751,46.97391891,
1.100833416,47.3500824,
1.102500081,46.7930336,
1.104166627,46.93634796,
1.105833292,46.88377762,
1.107500076,47.16503906,
1.109166741,46.76777649,
1.110833406,46.58036804,
1.112499952,46.51822281,
1.114166617,46.74671936,
1.115833402,47.3080864,
1.117500067,46.4675293,
1.119166732,46.55100632,
1.120833278,46.60409927,
1.122499943,47.36241531,
1.124166727,45.23945236,
1.125833392,44.50985718,
1.127500057,45.43684769,
1.129166722,44.65137863,
1.130833268,44.91183472,
1.132500052,45.28122711,
1.134166718,45.07939911,
1.135833383,45.04272079,
1.137500048,44.86188889,
1.139166594,44.68618393,
1.140833378,44.94820786,
1.142500043,44.76617813,
1.144166708,43.92795181,
1.145833373,44.03095245,
1.147499919,44.3003273,
1.149166703,44.39294052,
1.150833368,44.43364716,
1.152500033,44.69196701,
1.154166698,43.52565384,
1.155833364,43.86506271,
1.157500029,43.64316559,
1.159166694,43.82392502,
1.160833359,44.06434631,
1.162500024,43.61913681,
1.164166689,44.21178436,
1.165833354,43.94092178,
1.167500019,43.64943695,
1.169166684,43.35134506,
1.170833349,43.64807129,
1.172500014,43.81716156,
1.174166799,43.36380768,
1.175833344,43.57587051,
1.17750001,42.76296616,
1.179166675,43.74302292,
1.18083334,42.98728943,
1.182500124,42.71920013,
1.18416667,43.22623825,
1.185833335,43.58908081,
1.1875,43.07775116,
1.189166665,42.91787338,
1.190833449,42.40723038,
1.192499995,42.62477112,
1.19416666,42.37153244,
1.195833325,42.76971436,
1.19749999,43.15838623,
1.199166775,42.7320137,
1.20083344,42.69389725,
1.202499986,42.62770081,
1.204166651,43.17242432,
1.205833316,42.26845551,
1.2075001,42.64502716,
1.209166765,42.86368561,
1.210833311,42.66736984,
1.212499976,42.65394592,
1.214166641,42.69805145,
1.215833426,42.08320999,
1.217500091,42.52156448,
1.219166636,42.60320282,
1.220833302,41.80148315,
1.222499967,42.05016708,
1.224166751,43.08770752,
1.225833416,41.53497314,
1.227500081,42.36973953,
1.229166627,42.32081985,
1.230833292,42.00112534,
1.232500076,42.35278702,
1.234166741,42.11719894,
1.235833406,42.2445755,
1.237499952,42.05900574,
1.239166617,42.3463707,
1.240833402,41.47508621,
1.242500067,42.38244629,
1.244166732,41.97866058,
1.245833278,41.92490768,
1.247499943,41.75652695,
1.249166727,41.94985199,
1.250833392,42.05883026,
1.252500057,41.58032227,
1.254166722,42.19538879,
1.255833268,42.13434219,
1.257500052,41.82198715,
1.259166718,41.47053528,
1.260833383,41.21834183,
1.262500048,41.69603729,
1.264166594,41.83021164,
1.265833378,41.89712143,
1.267500043,41.57034302,
1.269166708,41.67009354,
1.270833373,41.01280212,
1.272499919,41.8391304,
1.274166703,41.74810791,
1.275833368,41.06964874,
1.277500033,41.38833618,
1.279166698,41.23180771,
1.280833364,41.06021118,
1.282500029,41.41762161,
1.284166694,40.44479752,
1.285833359,41.18758392,
1.287500024,40.1797905,
1.289166689,41.09605026,
1.290833354,41.16508865,
1.292500019,41.14403915,
1.294166684,40.68829727,
1.295833349,41.00604248,
1.297500014,40.67635727,
1.299166799,40.6044426,
1.300833344,41.21564865,
1.30250001,40.8987999,
1.304166675,41.17378998,
1.30583334,40.99839401,
1.307500124,40.65510178,
1.30916667,40.89328003,
1.310833335,41.52527618,
1.3125,40.93942261,
1.314166665,40.53878021,
1.315833449,40.27696609,
1.317499995,41.28706741,
1.31916666,40.70252991,
1.320833325,40.6721077,
1.32249999,40.60761261,
1.324166775,41.19086075,
1.32583344,40.75810242,
1.327499986,40.98539352,
1.329166651,40.56025696,
1.330833316,40.20472336,
1.3325001,40.27108765,
1.334166765,39.95692062,
1.335833311,40.14659119,
1.337499976,40.20576477,
1.339166641,39.96480179,
1.340833426,40.21562195,
1.342500091,40.62444687,
1.344166636,40.72610474,
1.345833302,40.50415802,
1.347499967,40.03040695,
1.349166751,40.57865143,
1.350833416,40.45772934,
1.352500081,40.19897842,
1.354166627,40.02074432,
1.355833292,39.8860054,
1.357500076,40.43733215,
1.359166741,40.35613251,
1.360833406,39.68384552,
1.362499952,40.1888237,
1.364166617,40.61850739,
1.365833402,40.4891777,
1.367500067,39.62031174,
1.369166732,39.66820145,
1.370833278,39.71326065,
1.372499943,40.16781235,
1.374166727,40.22127533,
1.375833392,40.79771042,
1.377500057,40.0609169,
1.379166722,40.23882294,
1.380833268,39.81856537,
1.382500052,40.31804276,
1.384166718,39.68671036,
1.385833383,40.39565277,
1.387500048,39.77018738,
1.389166594,40.60797501,
1.390833378,39.10239792,
1.392500043,40.05906677,
1.394166708,40.3795929,
1.395833373,40.17687607,
1.397499919,39.97034836,
1.399166703,40.30241776,
1.400833368,40.09289551,
1.402500033,39.60430908,
1.404166698,39.87112427,
1.405833364,39.57310867,
1.407500029,39.74821091,
1.409166694,40.0824585,
1.410833359,39.07368088,
1.412500024,40.30405426,
1.414166689,40.31210709,
1.415833354,39.38040924,
1.417500019,39.52894592,
1.419166684,39.98521423,
1.420833349,39.64013672,
1.422500014,39.49905777,
1.424166799,39.50564957,
1.425833344,39.47127533,
1.42750001,39.34688187,
1.429166675,40.29538345,
1.43083334,39.91064835,
1.432500124,38.99064636,
1.43416667,39.19112396,
1.435833335,39.05131912,
1.4375,39.23171616,
1.439166665,39.25786972,
1.440833449,39.51478958,
1.442499995,39.4550972,
1.44416666,39.42493439,
1.445833325,39.58546448,
1.44749999,39.81354904,
1.449166775,38.84856415,
1.45083344,39.30342102,
1.452499986,38.88915634,
1.454166651,38.74147034,
1.455833316,39.25271988,
1.4575001,39.12628555,
1.459166765,39.3990097,
1.460833311,39.73356628,
1.462499976,38.99697113,
1.464166641,39.28995895,
1.465833426,39.71376801,
1.467500091,38.91818619,
1.469166636,39.08982086,
1.470833302,39.00894547,
1.472499967,39.55397415,
1.474166751,39.55424881,
1.475833416,39.24338531,
1.477500081,39.12136459,
1.479166627,39.11504745,
1.480833292,39.1242218,
1.482500076,39.3468132,
1.484166741,39.11525726,
1.485833406,38.76005554,
1.487499952,38.86310577,
1.489166617,39.02061844,
1.490833402,38.11046982,
1.492500067,39.60110855,
1.494166732,38.95130157,
1.495833278,38.61505127,
1.497499943,39.14868164,
1.499166727,38.71871185,
1.500833392,39.33321381,
1.502500057,38.93671417,
1.504166722,39.02444458,
1.505833268,38.54949951,
1.507500052,38.87274933,
1.509166718,39.26161957,
1.510833383,38.52762604,
1.512500048,38.31616974,
1.514166594,39.23681641,
1.515833378,38.83131027,
1.517500043,39.07117081,
1.519166708,38.99124146,
1.520833373,39.24486542,
1.522499919,38.92176819,
1.524166703,38.8649292,
1.525833368,39.0805397,
1.527500033,38.52454758,
1.529166698,38.69874954,
1.530833364,39.04211426,
1.532500029,38.81840134,
1.534166694,38.94708252,
1.535833359,38.43195343,
1.537500024,39.45575714,
1.539166689,38.97811127,
1.540833354,38.56138992,
1.542500019,38.41957855,
1.544166684,38.29485703,
1.545833349,38.83058167,
1.547500014,38.42056656,
1.549166799,39.32291412,
1.550833344,38.8807106,
1.55250001,38.6794014,
1.554166675,38.60703659,
1.55583334,37.71370316,
1.557500124,38.3166275,
1.55916667,38.78770065,
1.560833335,38.35057831,
1.5625,38.36925125,
1.564166665,38.36873627,
1.565833449,38.16399002,
1.567499995,38.38040543,
1.56916666,38.63330841,
1.570833325,38.59457779,
1.57249999,38.68818665,
1.574166775,38.0336113,
1.57583344,38.48422241,
1.577499986,38.14925385,
1.579166651,38.19766617,
1.580833316,38.23163986,
1.5825001,38.34480667,
1.584166765,38.04298401,
1.585833311,38.76210022,
1.587499976,38.42129135,
1.589166641,38.11067963,
1.590833426,38.55390167,
1.592500091,38.90625763,
1.594166636,38.38047791,
1.595833302,38.75044632,
1.597499967,38.52134323,
1.599166751,38.10442734,
1.600833416,39.03503418,
1.602500081,38.45810318,
1.604166627,37.70269012,
1.605833292,38.45859909,
1.607500076,38.04698181,
1.609166741,38.83158875,
1.610833406,38.04817581,
1.612499952,38.65248489,
1.614166617,38.02725983,
1.615833402,37.89339447,
1.617500067,38.29288864,
1.619166732,38.00658417,
1.620833278,38.20777512,
1.622499943,38.59845734,
1.624166727,38.53334045,
1.625833392,37.80312347,
1.627500057,38.23405457,
1.629166722,38.25733948,
1.630833268,37.70854568,
1.632500052,37.99126434,
1.634166718,38.11355209,
1.635833383,38.29516983,
1.637500048,38.19547272,
1.639166594,38.29620361,
1.640833378,37.94210052,
1.642500043,37.67219162,
1.644166708,37.65984726,
1.645833373,38.22095108,
1.647499919,37.83934021,
1.649166703,37.85730362,
1.650833368,37.85421371,
1.652500033,37.93188477,
1.654166698,37.90846634,
1.655833364,37.92020416,
1.657500029,38.19759369,
1.659166694,38.03718567,
1.660833359,37.58990479,
1.662500024,38.08094025,
1.664166689,38.23539734,
1.665833354,38.06285477,
1.667500019,37.73326492,
1.669166684,37.80788422,
1.670833349,37.71184921,
1.672500014,38.06453705,
1.674166799,38.00237656,
1.675833344,37.51324081,
1.67750001,37.46780777,
1.679166675,37.30834579,
1.68083334,38.17050171,
1.682500124,37.99026871,
1.68416667,37.78752518,
1.685833335,37.79057312,
1.6875,38.06457901,
1.689166665,37.92999649,
1.690833449,37.88436508,
1.692499995,37.94077682,
1.69416666,37.15739059,
1.695833325,37.86551666,
1.69749999,38.50257874,
1.699166775,37.65878296,
1.70083344,37.7040863,
1.702499986,37.60199738,
1.704166651,37.79121017,
1.705833316,37.51573181,
1.7075001,37.82034683,
1.709166765,38.12606049,
1.710833311,38.10125732,
1.712499976,37.56197739,
1.714166641,37.79156876,
1.715833426,37.89327621,
1.717500091,37.26092148,
1.719166636,37.76489639,
1.720833302,37.39277267,
1.722499967,37.56136703,
1.724166751,37.54980087,
1.725833416,37.78236389,
1.727500081,37.14283752,
1.729166627,37.69728851,
1.730833292,37.16416931,
1.732500076,37.90198898,
1.734166741,38.04286957,
1.735833406,37.80631256,
1.737499952,37.3694458,
1.739166617,37.26246262,
1.740833402,37.88056183,
1.742500067,37.46772766,
1.744166732,37.86117172,
1.745833278,37.28481293,
1.747499943,37.49292374,
1.749166727,37.59434891,
1.750833392,38.12988281,
1.752500057,37.84592438,
1.754166722,37.92975616,
1.755833268,37.77201843,
1.757500052,37.71344757,
1.759166718,37.44055939,
1.760833383,37.23335648,
1.762500048,37.90589142,
1.764166594,38.20035553,
1.765833378,37.48894882,
1.767500043,37.29301071,
1.769166708,37.38948822,
1.770833373,37.59737396,
1.772499919,37.84418488,
1.774166703,37.87461472,
1.775833368,37.22916794,
1.777500033,37.58836365,
1.779166698,37.39254379,
1.780833364,37.88559341,
1.782500029,37.21424103,
1.784166694,37.16584015,
1.785833359,37.26361465,
1.787500024,37.4361496,
1.789166689,37.66674805,
1.790833354,37.78390121,
1.792500019,37.67508316,
1.794166684,37.28711319,
1.795833349,37.50564194,
1.797500014,37.204216,
1.799166799,37.57140732,
1.800833344,37.41316605,
1.80250001,36.97174835,
1.804166675,36.68607712,
1.80583334,37.27168655,
1.807500124,37.29745865,
1.80916667,37.17308426,
1.810833335,37.33715057,
1.8125,37.00920868,
1.814166665,37.95257187,
1.815833449,37.04642105,
1.817499995,36.87013626,
1.81916666,36.9321022,
1.820833325,37.03302383,
1.82249999,37.68746567,
1.824166775,37.57181549,
1.82583344,37.95906448,
1.827499986,36.80172348,
1.829166651,37.72178268,
1.830833316,37.39667511,
1.8325001,37.30368042,
1.834166765,37.38827515,
1.835833311,37.78654861,
1.837499976,36.96548462,
1.839166641,37.26134872,
1.840833426,36.94552231,
1.842500091,36.91451645,
1.844166636,36.77249146,
1.845833302,36.97067642,
1.847499967,37.85265732,
1.849166751,37.04029846,
1.850833416,37.34733963,
1.852500081,37.38845825,
1.854166627,37.53314209,
1.855833292,37.10930252,
1.857500076,37.2024765,
1.859166741,37.0355072,
1.860833406,37.36574554,
1.862499952,36.82146454,
1.864166617,37.04350281,
1.865833402,36.85155106,
1.867500067,37.13146591,
1.869166732,37.03288269,
1.870833278,36.57963181,
1.872499943,36.89175415,
1.874166727,36.60126877,
1.875833392,36.77207947,
1.877500057,37.40208054,
1.879166722,37.33665085,
1.880833268,36.90994263,
1.882500052,36.8621521,
1.884166718,36.77704239,
1.885833383,36.94538116,
1.887500048,37.25538635,
1.889166594,36.83847809,
1.890833378,36.78020096,
1.892500043,36.89520264,
1.894166708,36.6714592,
1.895833373,37.34748459,
1.897499919,36.69870758,
1.899166703,37.32955933,
1.900833368,37.68903351,
1.902500033,37.09231186,
1.904166698,37.44438934,
1.905833364,37.33800125,
1.907500029,36.37660599,
1.909166694,36.86522675,
1.910833359,37.11042023,
1.912500024,36.97277832,
1.914166689,36.66789246,
1.915833354,37.11572266,
1.917500019,36.9997139,
1.919166684,37.05875397,
1.920833349,36.99695969,
1.922500014,36.46352005,
1.924166799,36.90431213,
1.925833344,37.01998138,
1.92750001,36.56300354,
1.929166675,36.9540062,
1.93083334,36.67491913,
1.932500124,37.52783966,
1.93416667,36.88452148,
1.935833335,36.90685272,
1.9375,36.90775299,
1.939166665,36.69612885,
1.940833449,36.66421127,
1.942499995,36.54663086,
1.94416666,36.92749786,
1.945833325,36.53241348,
1.94749999,36.20447159,
1.949166775,36.87702942,
1.95083344,36.28242493,
1.952499986,36.90592957,
1.954166651,36.74772644,
1.955833316,37.05035019,
1.9575001,36.97058487,
1.959166765,36.51888275,
1.960833311,36.92678833,
1.962499976,36.81034851,
1.964166641,36.56497192,
1.965833426,36.96081924,
1.967500091,36.64612579,
1.969166636,37.01787567,
1.970833302,36.94325256,
1.972499967,37.10931778,
1.974166751,36.87168884,
1.975833416,37.06431198,
1.977500081,37.21114349,
1.979166627,36.79630661,
1.980833292,37.1740799,
1.982500076,36.4937973,
1.984166741,37.37299728,
1.985833406,36.46197891,
1.987499952,36.16197205,
1.989166617,36.73170853,
1.990833402,36.46839905,
1.992500067,37.0777092,
1.994166732,36.98350906,
1.995833278,36.77851105,
1.997499943,36.68084335,
1.999166727,36.60815048,
2.000833273,36.87439728,
2.002500057,37.45729446,
2.004166603,37.1963501,
2.005833387,36.40652084,
2.007500172,36.85141373,
2.009166718,36.74801254,
2.010833263,36.32595825,
2.012500048,36.5602951,
2.014166594,36.3078537,
2.015833378,37.22340012,
2.017500162,37.00363159,
2.019166708,37.01196289,
2.020833254,36.97663498,
2.022500038,36.64813995,
2.024166822,37.09113693,
2.025833368,36.87271881,
2.027499914,36.60951233,
2.029166698,36.04045105,
2.030833244,36.73416138,
2.032500029,36.88937759,
2.034166813,35.8893013,
2.035833359,37.47288895,
2.037499905,36.29480743,
2.039166689,37.20787048,
2.040833473,36.409935,
2.042500019,36.84579849,
2.044166803,36.77956009,
2.045833349,36.86761856,
2.047499895,37.00158691,
2.049166679,36.92445374,
2.050833464,36.89849091,
2.05250001,36.51416016,
2.054166555,36.7065506,
2.05583334,36.43309021,
2.057500124,36.72510529,
2.05916667,36.67289734,
2.060833454,36.51810837,
2.0625,35.9797287,
2.064166546,36.35385132,
2.06583333,36.85354996,
2.067500114,36.18206024,
2.06916666,36.68950653,
2.070833445,36.58804321,
2.07249999,36.48347473,
2.074166775,36.5887146,
2.075833321,36.22719574,
2.077500105,36.28199387,
2.079166651,36.24813461,
2.080833197,36.65790176,
2.082499981,36.6967659,
2.084166765,36.72026062,
2.085833311,36.67878342,
2.087500095,36.60504913,
2.089166641,36.50811386,
2.090833426,36.69100952,
2.092499971,36.35502243,
2.094166756,36.365345,
2.095833302,36.18013763,
2.097500086,36.41869736,
2.099166632,36.62039566,
2.100833416,36.76146698,
2.102499962,37.0201416,
2.104166746,36.39632034,
2.105833292,36.20113754,
2.107500076,36.33214951,
2.109166622,36.4540596,
2.110833406,36.82391739,
2.112499952,36.14981079,
2.114166737,36.49630737,
2.115833521,36.39313126,
2.117500067,36.78528976,
2.119166613,36.25948715,
2.120833397,36.31303024,
2.122499943,36.63044739,
2.124166727,36.52017593,
2.125833273,36.404953,
2.127500057,36.79486465,
2.129166603,36.46541595,
2.130833387,37.05033112,
2.132500172,35.74820709,
2.134166718,36.64032745,
2.135833502,36.53931808,
2.137500048,36.54821396,
2.139166832,36.2992897,
2.140833378,36.14443588,
2.142500162,35.95090866,
2.144166708,36.76603699,
2.145833254,36.0252037,
2.147500038,36.23397064,
2.149166584,36.51277542,
2.150833368,36.48922348,
2.152500153,36.14940262,
2.154166698,36.14535904,
2.155833483,36.94864273,
2.157500029,36.19952011,
2.159166813,36.62796783,
2.160833597,36.26685333,
2.162499905,36.46561432,
2.164166689,36.62163925,
2.165833235,36.26243973,
2.167500019,36.49754715,
2.169166803,36.10529709,
2.170833349,35.93887711,
2.172500134,36.13610458,
2.174166679,36.12533569,
2.175833464,36.35025787,
2.177500248,36.35608673,
2.179166555,36.17633438,
2.18083334,36.20149231,
2.182499886,36.563797,
2.18416667,36.15982056,
2.185833454,35.76691055,
2.1875,36.55070877,
2.189166784,36.48178864,
2.19083333,36.07549286,
2.192500114,35.91002655,
2.194166899,36.01631927,
2.195833445,36.02928543,
2.19749999,36.46868515,
2.199166536,36.0674057,
2.200833321,35.52004623,
2.202500105,36.05331802,
2.204166651,36.07193375,
2.205833435,36.60285568,
2.207499981,36.94776535,
2.209166765,36.13224792,
2.210833549,36.85052872,
2.212500095,35.8492775,
2.21416688,35.99685287,
2.215833187,36.40733719,
2.217499971,36.01053619,
2.219166756,36.29543686,
2.220833302,36.32903671,
2.222500086,35.937603,
2.224166632,35.9129715,
2.225833416,36.3886795,
2.2275002,35.86597443,
2.229166746,36.2672348,
2.23083353,35.66822052,
2.232499838,36.75935745,
2.234166622,36.75823212,
2.235833406,36.0479126,
2.237499952,35.97109222,
2.239166737,36.17376709,
2.240833282,36.12363434,
2.242500067,36.55619431,
2.244166851,36.52751541,
2.245833397,36.07621384,
2.247500181,36.30279922,
2.249166727,36.51610947,
2.250833273,36.41384125,
2.252500057,36.18478775,
2.254166603,35.85144043,
2.255833387,36.62905121,
2.257499933,36.26411819,
2.259166718,36.17249298,
2.260833502,35.71752548,
2.262500048,35.50267792,
2.264166832,36.19665909,
2.265833378,36.03092194,
2.267500162,36.16262054,
2.269166708,36.0561409,
2.270833254,36.47405624,
2.272500038,36.73426056,
2.274166584,35.84907913,
2.275833368,35.80873108,
2.277500153,35.87485886,
2.279166698,36.40246582,
2.280833483,36.00716019,
2.282500029,36.31550598,
2.284166813,35.83050156,
2.285833597,36.29890442,
2.287499905,35.82115936,
2.289166689,36.0160675,
2.290833235,36.1850853,
2.292500019,36.04050064,
2.294166803,36.13744354,
2.295833349,35.93026733,
2.297500134,36.32034683,
2.299166679,35.87478256,
2.300833464,36.383461,
2.302500248,35.94589615,
2.304166555,35.92596436,
2.30583334,36.47563553,
2.307499886,35.95969772,
2.30916667,36.11203766,
2.310833454,36.11038971,
2.3125,36.37881851,
2.314166784,35.66794968,
2.31583333,36.3045845,
2.317500114,36.09789658,
2.319166899,35.79618835,
2.320833445,35.83503342,
2.32249999,36.0731926,
2.324166536,36.35308075,
2.325833321,35.69747162,
2.327500105,36.26259613,
2.329166651,35.98091888,
2.330833435,35.9707489,
2.332499981,36.19493484,
2.334166765,35.82842636,
2.335833549,36.39331436,
2.337500095,36.16228485,
2.33916688,36.10777664,
2.340833187,36.1525383,
2.342499971,35.86530304,
2.344166756,36.43412018,
2.345833302,35.61579895,
2.347500086,35.68034744,
2.349166632,36.34858322,
2.350833416,35.83980179,
2.3525002,35.81966019,
2.354166746,36.25914764,
2.35583353,36.40866089,
2.357499838,35.73004913,
2.359166622,36.32178497,
2.360833406,35.71406937,
2.362499952,36.30064392,
2.364166737,35.61973572,
2.365833282,35.34062958,
2.367500067,35.4325676,
2.369166851,36.21512222,
2.370833397,36.28491974,
2.372500181,35.95933533,
2.374166727,35.96750641,
2.375833273,36.04514694,
2.377500057,36.19139481,
2.379166603,36.22476196,
2.380833387,36.46195221,
2.382499933,35.95412445,
2.384166718,36.23036194,
2.385833502,35.88563538,
2.387500048,36.32593918,
2.389166832,36.47816086,
2.390833378,36.32235718,
2.392500162,36.02195358,
2.394166708,35.47633743,
2.395833254,35.26830673,
2.397500038,35.49447632,
2.399166584,36.23236084,
2.400833368,36.23623657,
2.402500153,35.81333542,
2.404166698,35.69498825,
2.405833483,35.44859314,
2.407500029,35.26028442,
2.409166813,36.11657715,
2.410833597,35.53362274,
2.412499905,36.30192566,
2.414166689,35.60241699,
2.415833235,35.96699524,
2.417500019,36.52492905,
2.419166803,35.42253876,
2.420833349,35.65533066,
2.422500134,35.57981491,
2.424166679,36.04499435,
2.425833464,35.49599075,
2.427500248,36.08528519,
2.429166555,36.04838943,
2.43083334,35.88746262,
2.432499886,35.54798889,
2.43416667,35.48190689,
2.435833454,35.71470642,
2.4375,35.66232681,
2.439166784,35.78017044,
2.44083333,35.58964539,
2.442500114,35.34621048,
2.444166899,35.92730713,
2.445833445,36.27339935,
2.44749999,35.95011139,
2.449166536,35.88273621,
2.450833321,35.81225204,
2.452500105,36.0718956,
2.454166651,35.6606102,
2.455833435,35.64848709,
2.457499981,35.47622299,
2.459166765,35.61389542,
2.460833549,35.68887711,
2.462500095,36.20690536,
2.46416688,35.78990555,
2.465833187,35.80403519,
2.467499971,35.18516159,
2.469166756,35.81409836,
2.470833302,35.76195145,
2.472500086,35.77262497,
2.474166632,35.90933228,
2.475833416,35.66094589,
2.4775002,35.93119049,
2.479166746,35.87015533,
2.48083353,36.10849762,
2.482499838,35.81625748,
2.484166622,35.93429184,
2.485833406,35.824543,
2.487499952,35.96648407,
2.489166737,35.36481094,
2.490833282,35.56745148,
2.492500067,35.28115082,
2.494166851,35.63663864,
2.495833397,35.88957214,
2.497500181,35.48196793,
2.499166727,35.65467834,
2.500833273,35.57663345,
2.502500057,36.02406693,
2.504166603,35.49306488,
2.505833387,35.98968506,
2.507499933,35.29121399,
2.509166718,35.84664917,
2.510833502,35.66532516,
2.512500048,35.65378189,
2.514166832,36.0593605,
2.515833378,36.00830078,
2.517500162,35.92889404,
2.519166708,35.80738831,
2.520833254,35.34257889,
2.522500038,35.79213333,
2.524166584,35.79152298,
2.525833368,36.02327347,
2.527500153,36.3609314,
2.529166698,35.81005478,
2.530833483,35.60818481,
2.532500029,35.63334274,
2.534166813,35.7887001,
2.535833597,35.55258942,
2.537499905,35.10541153,
2.539166689,35.66551208,
2.540833235,36.01847458,
2.542500019,35.23871613,
2.544166803,34.88508987,
2.545833349,35.94478989,
2.547500134,35.81236649,
2.549166679,35.83526993,
2.550833464,35.97185898,
2.552500248,35.93210983,
2.554166555,35.82327271,
2.55583334,35.49949265,
2.557499886,35.43899155,
2.55916667,36.02426529,
2.560833454,35.74838257,
2.5625,35.46801758,
2.564166784,35.08466339,
2.56583333,35.39652252,
2.567500114,35.5994072,
2.569166899,35.56999207,
2.570833445,36.14170456,
2.57249999,35.41320038,
2.574166536,35.76991272,
2.575833321,35.91930008,
2.577500105,35.16079712,
2.579166651,36.01538467,
2.580833435,35.44421005,
2.582499981,35.53675461,
2.584166765,35.12431717,
2.585833549,35.66544724,
2.587500095,35.65103149,
2.58916688,36.15512466,
2.590833187,35.56745148,
2.592499971,35.76197052,
2.594166756,35.53549957,
2.595833302,35.58337784,
2.597500086,35.4847641,
2.599166632,35.2585144,
2.600833416,35.38072205,
2.6025002,35.385849,
2.604166746,35.79045105,
2.60583353,35.03805161,
2.607499838,35.29731369,
2.609166622,35.97000885,
2.610833406,35.91158676,
2.612499952,35.65085983,
2.614166737,35.85589218,
2.615833282,35.31352615,
2.617500067,36.0476265,
2.619166851,35.67301559,
2.620833397,35.44314194,
2.622500181,35.21782303,
2.624166727,35.41247177,
2.625833273,35.60150909,
2.627500057,35.81663513,
2.629166603,36.24681473,
2.630833387,35.18943405,
2.632499933,35.45030212,
2.634166718,35.95149994,
2.635833502,35.57865906,
2.637500048,35.62334824,
2.639166832,35.5706749,
2.640833378,35.85243988,
2.642500162,35.42216492,
2.644166708,35.75561523,
2.645833254,35.64804077,
2.647500038,35.19662857,
2.649166584,35.71239853,
2.650833368,34.78855896,
2.652500153,35.50233078,
2.654166698,35.22447205,
2.655833483,35.75271606,
2.657500029,35.6586113,
2.659166813,34.94768524,
2.660833597,35.52708435,
2.662499905,35.2855835,
2.664166689,36.07772446,
2.665833235,35.41769409,
2.667500019,35.54631424,
2.669166803,35.41077423,
2.670833349,35.04475784,
2.672500134,35.58913803,
2.674166679,35.77130508,
2.675833464,35.39704132,
2.677500248,35.00893784,
2.679166555,35.38089371,
2.68083334,35.50864792,
2.682499886,35.28554916,
2.68416667,35.33304977,
2.685833454,35.63343811,
2.6875,35.16316223,
2.689166784,35.38704681,
2.69083333,35.49614716,
2.692500114,35.40130234,
2.694166899,35.43644714,
2.695833445,36.15617752,
2.69749999,35.75362396,
2.699166536,35.52158737,
2.700833321,35.85534668,
2.702500105,35.56664276,
2.704166651,35.78506851,
2.705833435,36.0850563,
2.707499981,35.06609726,
2.709166765,35.36996078,
2.710833549,35.41175461,
2.712500095,35.53072357,
2.71416688,35.06624222,
2.715833187,35.2891655,
2.717499971,35.4767189,
2.719166756,35.25558472,
2.720833302,35.31206512,
2.722500086,35.65408707,
2.724166632,35.66753006,
2.725833416,35.46252441,
2.7275002,35.40805817,
2.729166746,35.66122818,
2.73083353,35.45978928,
2.732499838,35.65450287,
2.734166622,35.56561279,
2.735833406,35.74488068,
2.737499952,35.67271423,
2.739166737,35.54318619,
2.740833282,35.22893906,
2.742500067,34.89645386,
2.744166851,35.63878632,
2.745833397,35.36248016,
2.747500181,35.38350677,
2.749166727,35.21656799,
2.750833273,35.28108978,
2.752500057,36.22772217,
2.754166603,35.02178574,
2.755833387,35.47563553,
2.757499933,35.36776733,
2.759166718,35.87504196,
2.760833502,34.99490738,
2.762500048,35.55981445,
2.764166832,35.02114105,
2.765833378,35.46442032,
2.767500162,35.53551865,
2.769166708,35.65723801,
2.770833254,35.77214432,
2.772500038,35.44717407,
2.774166584,35.27403259,
2.775833368,35.87774277,
2.777500153,34.98939133,
2.779166698,35.70711136,
2.780833483,35.65409851,
2.782500029,35.08322525,
2.784166813,35.86454773,
2.785833597,35.55935669,
2.787499905,35.39618683,
2.789166689,35.71136856,
2.790833235,35.5943985,
2.792500019,35.82722473,
2.794166803,35.35332108,
2.795833349,35.04097748,
2.797500134,35.22071457,
2.799166679,35.23132706,
2.800833464,35.40367126,
2.802500248,35.12869263,
2.804166555,35.56341553,
2.80583334,35.50531769,
2.807499886,35.77073669,
2.80916667,35.29047012,
2.810833454,35.5549202,
2.8125,35.46732712,
2.814166784,34.82025528,
2.81583333,35.29675674,
2.817500114,34.92315674,
2.819166899,35.34041977,
2.820833445,35.40575409,
2.82249999,35.60234451,
2.824166536,36.04985809,
2.825833321,35.99251175,
2.827500105,34.95563126,
2.829166651,35.91799545,
2.830833435,35.63996887,
2.832499981,35.58631134,
2.834166765,35.21255112,
2.835833549,35.43454361,
2.837500095,35.28723907,
2.83916688,35.69029999,
2.840833187,35.38830566,
2.842499971,35.37974548,
2.844166756,35.25416946,
2.845833302,35.89413834,
2.847500086,35.59416199,
2.849166632,35.02716064,
2.850833416,35.50411606,
2.8525002,35.6378212,
2.854166746,35.44779587,
2.85583353,35.27693176,
2.857499838,35.11533356,
2.859166622,35.43857574,
2.860833406,34.79843903,
2.862499952,34.95570755,
2.864166737,35.70399475,
2.865833282,35.09513855,
2.867500067,35.17036438,
2.869166851,34.97797775,
2.870833397,35.1726532,
2.872500181,34.63532639,
2.874166727,35.34848022,
2.875833273,34.81678009,
2.877500057,35.39176559,
2.879166603,36.1264534,
2.880833387,35.30070877,
2.882499933,35.3430748,
2.884166718,35.19579315,
2.885833502,35.28911972,
2.887500048,35.1574173,
2.889166832,35.32110977,
2.890833378,34.9646225,
2.892500162,35.23409653,
2.894166708,35.43512726,
2.895833254,35.47125244,
2.897500038,35.62927246,
2.899166584,35.56262589,
2.900833368,35.24495316,
2.902500153,35.01250076,
2.904166698,35.0021553,
2.905833483,34.82164383,
2.907500029,35.47263718,
2.909166813,35.66625214,
2.910833597,35.28447723,
2.912499905,35.40093231,
2.914166689,35.02840805,
2.915833235,34.765522,
2.917500019,35.39687729,
2.919166803,35.43537903,
2.920833349,35.39144516,
2.922500134,34.8781395,
2.924166679,35.44279861,
2.925833464,34.74196625,
2.927500248,34.87560654,
2.929166555,35.44661331,
2.93083334,35.34108353,
2.932499886,34.68658829,
2.93416667,34.72209549,
2.935833454,34.62636948,
2.9375,34.75162888,
2.939166784,35.70542145,
2.94083333,35.3987999,
2.942500114,35.53666306,
2.944166899,35.01297379,
2.945833445,35.07411194,
2.94749999,35.29133224,
2.949166536,35.0721817,
2.950833321,35.19050598,
2.952500105,34.87608337,
2.954166651,35.48421478,
2.955833435,35.64777756,
2.957499981,34.96881104,
2.959166765,35.18415451,
2.960833549,35.31999588,
2.962500095,35.07602692,
2.96416688,35.90559769,
2.965833187,35.4239502,
2.967499971,35.18781281,
2.969166756,35.62063599,
2.970833302,34.80114746,
2.972500086,34.74144745,
2.974166632,34.43475723,
2.975833416,35.11530685,
2.9775002,36.02896118,
2.979166746,34.84677887,
2.98083353,35.2184906,
2.982499838,35.21139145,
2.984166622,35.09896469,
2.985833406,35.2421875,
2.987499952,35.51014328,
2.989166737,35.10741425,
2.990833282,35.36221313,
2.992500067,35.04941559,
2.994166851,34.77812576,
2.995833397,35.39698029,
2.997500181,35.18376923,
2.999166727,35.07525253,
3.000833273,35.49557114,
3.002500057,35.1143074,
3.004166603,35.39874649,
3.005833387,35.54495239,
3.007499933,35.03476715,
3.009166718,35.07542038,
3.010833502,34.94758606,
3.012500048,35.20431519,
3.014166832,35.49317551,
3.015833378,35.083992,
3.017500162,35.51903152,
3.019166708,35.29888153,
3.020833254,35.16452026,
3.022500038,34.5642128,
3.024166584,35.50185013,
3.025833368,35.18286896,
3.027500153,35.19871902,
3.029166698,35.48732376,
3.030833483,35.20249557,
3.032500029,36.29802322,
3.034166813,34.8660965,
3.035833597,34.60181046,
3.037499905,35.36027908,
3.039166689,35.15771103,
3.040833235,35.30987167,
3.042500019,35.35132217,
3.044166803,35.17510605,
3.045833349,35.25605392,
3.047500134,34.86017227,
3.049166679,35.5021553,
3.050833464,35.31242752,
3.052500248,34.92280579,
3.054166555,35.3047142,
3.05583334,35.11339951,
3.057499886,35.22786713,
3.05916667,34.91232681,
3.060833454,34.84701157,
3.0625,34.74431992,
3.064166784,34.83103943,
3.06583333,35.44982147,
3.067500114,34.82202148,
3.069166899,35.1963501,
3.070833445,35.59511948,
3.07249999,34.7504158,
3.074166536,34.8758049,
3.075833321,35.11983109,
3.077500105,35.41415405,
3.079166651,34.95015335,
3.080833435,35.26537704,
3.082499981,34.6703949,
3.084166765,35.51757813,
3.085833549,34.68335342,
3.087500095,35.28716278,
3.08916688,34.72463226,
3.090833187,35.33952713,
3.092499971,35.06555939,
3.094166756,35.08203506,
3.095833302,35.12972641,
3.097500086,35.37546158,
3.099166632,35.14785767,
3.100833416,35.27141571,
3.1025002,34.77665329,
3.104166746,34.93121719,
3.10583353,34.88243866,
3.107499838,35.51948547,
3.109166622,35.59363937,
3.110833406,35.5173912,
3.112499952,35.20603943,
3.114166737,35.63337708,
3.115833282,34.57340622,
3.117500067,35.33969879,
3.119166851,35.24331284,
3.120833397,35.23233795,
3.122500181,35.22354889,
3.124166727,34.97608566,
3.125833273,34.94087601,
3.127500057,35.36190796,
3.129166603,35.33804321,
3.130833387,35.20411301,
3.132499933,35.06420898,
3.134166718,35.29268265,
3.135833502,35.15447617,
3.137500048,35.12092209,
3.139166832,34.81786728,
3.140833378,35.38378525,
3.142500162,34.84984589,
3.144166708,34.89515686,
3.145833254,35.26727295,
3.147500038,35.26897049,
3.149166584,35.75504684,
3.150833368,35.1482811,
3.152500153,34.80725098,
3.154166698,35.02890778,
3.155833483,35.20125961,
3.157500029,35.40656281,
3.159166813,35.14785767,
3.160833597,34.72894287,
3.162499905,34.44297028,
3.164166689,35.13433075,
3.165833235,35.14315033,
3.167500019,35.29501343,
3.169166803,35.00226974,
3.170833349,34.85035706,
3.172500134,35.16102982,
3.174166679,34.93480301,
3.175833464,34.82659531,
3.177500248,35.19652939,
3.179166555,34.86902237,
3.18083334,34.64035416,
3.182499886,35.18037033,
3.18416667,34.83424377,
3.185833454,35.02692413,
3.1875,35.34322357,
3.189166784,35.07106018,
3.19083333,35.15673065,
3.192500114,35.81570816,
3.194166899,35.43941116,
3.195833445,34.77342987,
3.19749999,34.94462967,
3.199166536,34.90898514,
3.200833321,35.19514084,
3.202500105,34.55754471,
3.204166651,34.78573227,
3.205833435,34.89175797,
3.207499981,35.29583359,
3.209166765,34.90745163,
3.210833549,34.97676468,
3.212500095,34.92524719,
3.21416688,34.97182083,
3.215833187,35.41730881,
3.217499971,35.21984863,
3.219166756,34.82788467,
3.220833302,35.00345612,
3.222500086,35.14184189,
3.224166632,35.04232788,
3.225833416,34.97302246,
3.2275002,35.37607193,
3.229166746,35.05113983,
3.23083353,34.87939835,
3.232499838,35.50985718,
3.234166622,35.05784225,
3.235833406,35.06665039,
3.237499952,34.90436554,
3.239166737,35.71786118,
3.240833282,35.27761459,
3.242500067,35.05722427,
3.244166851,35.1485939,
3.245833397,35.16061401,
3.247500181,35.25380325,
3.249166727,35.18405914,
3.250833273,34.86858368,
3.252500057,34.37854385,
3.254166603,35.2349205,
3.255833387,34.95148849,
3.257499933,35.02696228,
3.259166718,34.59320831,
3.260833502,34.86057281,
3.262500048,34.61471939,
3.264166832,34.39399338,
3.265833378,35.36022186,
3.267500162,34.77797699,
3.269166708,34.74598694,
3.270833254,34.34291458,
3.272500038,35.03160477,
3.274166584,34.86862183,
3.275833368,34.34997177,
3.277500153,34.77876663,
3.279166698,34.92946625,
3.280833483,34.64212799,
3.282500029,35.30739975,
3.284166813,35.09133148,
3.285833597,34.95505524,
3.287499905,34.86761093,
3.289166689,34.93264771,
3.290833235,35.58530426,
3.292500019,34.94695282,
3.294166803,34.58462143,
3.295833349,34.52487183,
3.297500134,35.16902161,
3.299166679,35.28824997,
3.300833464,34.62031937,
3.302500248,34.94648743,
3.304166555,34.9560318,
3.30583334,35.10212326,
3.307499886,35.03662491,
3.30916667,35.00169373,
3.310833454,34.61724472,
3.3125,34.47146988,
3.314166784,34.49152756,
3.31583333,35.14377213,
3.317500114,34.93823242,
3.319166899,34.86129379,
3.320833445,34.78484344,
3.32249999,34.76387787,
3.324166536,34.7653389,
3.325833321,35.01305771,
3.327500105,34.90471649,
3.329166651,34.84360886,
3.330833435,34.90685654,
3.332499981,34.91308212,
3.334166765,35.31402206,
3.335833549,34.24344254,
3.337500095,35.32096481,
3.33916688,34.73191833,
3.340833187,34.37587738,
3.342499971,35.18597031,
3.344166756,35.32513809,
3.345833302,34.87951279,
3.347500086,34.74908066,
3.349166632,34.36328888,
3.350833416,35.21089935,
3.3525002,34.60728836,
3.354166746,34.80718613,
3.35583353,35.03240204,
3.357499838,34.89034653,
3.359166622,34.53076553,
3.360833406,34.93454742,
3.362499952,35.79818344,
3.364166737,35.14416122,
3.365833282,34.72622299,
3.367500067,35.204319,
3.369166851,35.58095932,
3.370833397,35.36334229,
3.372500181,34.92237854,
3.374166727,35.05407715,
3.375833273,34.60224152,
3.377500057,34.68187714,
3.379166603,35.57601929,
3.380833387,34.61040878,
3.382499933,34.65384293,
3.384166718,35.3602562,
3.385833502,34.89532089,
3.387500048,34.7625885,
3.389166832,34.73846054,
3.390833378,34.93263245,
3.392500162,35.32305908,
3.394166708,34.65840912,
3.395833254,35.18221283,
3.397500038,34.88745117,
3.399166584,35.00673676,
3.400833368,34.78990936,
3.402500153,34.69293594,
3.404166698,34.99912262,
3.405833483,34.99609756,
3.407500029,34.58498001,
3.409166813,35.00101852,
3.410833597,34.82937241,
3.412499905,34.39329147,
3.414166689,34.86790848,
3.415833235,35.26348877,
3.417500019,34.83266449,
3.419166803,34.51364136,
3.420833349,34.88949585,
3.422500134,35.02894592,
3.424166679,35.15958023,
3.425833464,35.2422142,
3.427500248,35.38908005,
3.429166555,34.72419357,
3.43083334,34.79560471,
3.432499886,34.84605408,
3.43416667,35.10044098,
3.435833454,34.50165176,
3.4375,35.00382233,
3.439166784,34.56465149,
3.44083333,34.55524445,
3.442500114,34.74375916,
3.444166899,35.11722565,
3.445833445,34.77727509,
3.44749999,34.81931305,
3.449166536,34.72980118,
3.450833321,35.00131226,
3.452500105,35.08319473,
3.454166651,34.41789627,
3.455833435,34.79452133,
3.457499981,35.05735016,
3.459166765,34.91354752,
3.460833549,34.93615341,
3.462500095,34.49198914,
3.46416688,34.64401627,
3.465833187,34.60905838,
3.467499971,34.87181473,
3.469166756,35.21069336,
3.470833302,34.9500885,
3.472500086,35.20954514,
3.474166632,34.89799118,
3.475833416,34.60070038,
3.4775002,35.0874176,
3.479166746,34.9925499,
3.48083353,34.77400589,
3.482499838,34.91795731,
3.484166622,34.78995895,
3.485833406,34.65097427,
3.487499952,35.24497223,
3.489166737,34.77945709,
3.490833282,34.61985397,
3.492500067,35.07626724,
3.494166851,34.67258072,
3.495833397,34.59797287,
3.497500181,34.51024246,
3.499166727,34.65668869,
3.500833273,34.52672577,
3.502500057,34.88316727,
3.504166603,34.92611313,
3.505833387,34.7538414,
3.507499933,35.3092041,
3.509166718,34.9118042,
3.510833502,35.04733276,
3.512500048,35.01127243,
3.514166832,35.44766617,
3.515833378,34.77440643,
3.517500162,34.74988937,
3.519166708,35.09680557,
3.520833254,34.90721512,
3.522500038,34.54956818,
3.524166584,34.9262619,
3.525833368,35.04797363,
3.527500153,34.65090561,
3.529166698,34.55455017,
3.530833483,34.39891815,
3.532500029,34.71789551,
3.534166813,35.39454269,
3.535833597,34.87033081,
3.537499905,35.05858612,
3.539166689,34.69935989,
3.540833235,34.41192627,
3.542500019,34.54410934,
3.544166803,34.96954346,
3.545833349,34.67826462,
3.547500134,34.79853821,
3.549166679,34.83303452,
3.550833464,34.54052734,
3.552500248,34.84229279,
3.554166555,34.72515869,
3.55583334,35.09791565,
3.557499886,34.30506897,
3.55916667,35.30905914,
3.560833454,34.24677658,
3.5625,35.17578888,
3.564166784,35.03736877,
3.56583333,34.81624603,
3.567500114,34.99050903,
3.569166899,34.70037079,
3.570833445,34.32410431,
3.57249999,34.4644928,
3.574166536,34.86234283,
3.575833321,34.96966553,
3.577500105,34.87812424,
3.579166651,35.06894302,
3.580833435,34.65756607,
3.582499981,34.52051926,
3.584166765,34.53967667,
3.585833549,34.59147644,
3.587500095,34.97798538,
3.58916688,34.9316597,
3.590833187,34.88296509,
3.592499971,34.35977554,
3.594166756,34.61582565,
3.595833302,34.81911469,
3.597500086,34.78805161,
3.599166632,34.81339645,
3.600833416,34.57963943,
3.6025002,34.82613754,
3.604166746,34.4943924,
3.60583353,35.00474167,
3.607499838,34.43582535,
3.609166622,34.51344299,
3.610833406,34.62561035,
3.612499952,34.99668503,
3.614166737,34.45803452,
3.615833282,34.93780136,
3.617500067,34.47726822,
3.619166851,34.67594147,
3.620833397,34.68528366,
3.622500181,34.94869995,
3.624166727,34.62700653,
3.625833273,34.95202255,
3.627500057,35.08286285,
3.629166603,34.66229248,
3.630833387,34.91264725,
3.632499933,34.90052795,
3.634166718,34.8184967,
3.635833502,34.90960312,
3.637500048,34.81257629,
3.639166832,34.60742569,
3.640833378,34.57943344,
3.642500162,34.70212936,
3.644166708,34.51869965,
3.645833254,34.94605637,
3.647500038,35.4079628,
3.649166584,34.80492783,
3.650833368,35.03390503,
3.652500153,35.11523819,
3.654166698,34.89742661,
3.655833483,34.51659775,
3.657500029,34.86388397,
3.659166813,34.77065277,
3.660833597,34.96814346,
3.662499905,34.50832367,
3.664166689,34.48036575,
3.665833235,34.44786453,
3.667500019,34.69703674,
3.669166803,34.26591492,
3.670833349,34.51334381,
3.672500134,34.67933273,
3.674166679,33.84169388,
3.675833464,34.7303009,
3.677500248,34.20252991,
3.679166555,35.16950989,
3.68083334,33.93019485,
3.682499886,34.62205505,
3.68416667,34.40133667,
3.685833454,34.8306694,
3.6875,34.92970276,
3.689166784,34.95773315,
3.69083333,34.37757874,
3.692500114,34.8325882,
3.694166899,34.58699036,
3.695833445,34.81222916,
3.69749999,34.73060226,
3.699166536,34.22897339,
3.700833321,34.15620041,
3.702500105,35.17998123,
3.704166651,34.81890869,
3.705833435,34.9917984,
3.707499981,34.51926041,
3.709166765,35.21836472,
3.710833549,34.71160126,
3.712500095,34.56576538,
3.71416688,34.37763596,
3.715833187,34.66014862,
3.717499971,35.37240982,
3.719166756,34.72672272,
3.720833302,34.74478149,
3.722500086,35.2401123,
3.724166632,34.1515007,
3.725833416,34.33039093,
3.7275002,34.83285141,
3.729166746,34.34586334,
3.73083353,34.17281342,
3.732499838,34.13283157,
3.734166622,34.6934166,
3.735833406,34.65077591,
3.737499952,34.22233963,
3.739166737,34.38523102,
3.740833282,34.44837952,
3.742500067,34.38398743,
3.744166851,34.70711899,
3.745833397,34.59156418,
3.747500181,34.74079514,
3.749166727,34.45652008,
3.750833273,34.42447662,
3.752500057,34.7340889,
3.754166603,34.31328964,
3.755833387,34.72222519,
3.757499933,34.85419464,
3.759166718,34.26398468,
3.760833502,34.76854324,
3.762500048,34.54915237,
3.764166832,34.70095062,
3.765833378,33.93986511,
3.767500162,34.79155731,
3.769166708,34.77524948,
3.770833254,34.93089676,
3.772500038,35.20164108,
3.774166584,34.71364594,
3.775833368,34.69257355,
3.777500153,34.31171417,
3.779166698,34.1174469,
3.780833483,34.47006989,
3.782500029,34.70940781,
3.784166813,34.26257706,
3.785833597,34.32852173,
3.787499905,35.01394653,
3.789166689,34.82053375,
3.790833235,34.49033356,
3.792500019,34.51268005,
3.794166803,34.57650757,
3.795833349,34.81069565,
3.797500134,34.65235901,
3.799166679,34.62094879,
3.800833464,34.06418228,
3.802500248,34.44885635,
3.804166555,34.12808228,
3.80583334,35.02653885,
3.807499886,34.83253479,
3.80916667,34.62739182,
3.810833454,34.5121727,
3.8125,34.80490112,
3.814166784,34.56279373,
3.81583333,34.81085205,
3.817500114,34.62706375,
3.819166899,34.77891159,
3.820833445,34.90166855,
3.82249999,34.82095718,
3.824166536,34.75059891,
3.825833321,34.46873093,
3.827500105,34.63933945,
3.829166651,34.17485809,
3.830833435,34.58390427,
3.832499981,34.71988297,
3.834166765,34.86321259,
3.835833549,34.35919952,
3.837500095,34.55451584,
3.83916688,34.37560272,
3.840833187,34.76408768,
3.842499971,34.83193207,
3.844166756,34.41208649,
3.845833302,34.84051895,
3.847500086,34.81842041,
3.849166632,34.36581039,
3.850833416,34.59954071,
3.8525002,34.38849258,
3.854166746,34.76581192,
3.85583353,34.49628067,
3.857499838,34.52273941,
3.859166622,34.30494308,
3.860833406,34.45742798,
3.862499952,34.7481041,
3.864166737,34.45333099,
3.865833282,34.85927963,
3.867500067,34.55621719,
3.869166851,35.08444214,
3.870833397,35.06889725,
3.872500181,34.72758865,
3.874166727,34.51147461,
3.875833273,34.65983582,
3.877500057,34.95443344,
3.879166603,34.45569611,
3.880833387,34.25695801,
3.882499933,34.18999863,
3.884166718,34.51412582,
3.885833502,35.07972717,
3.887500048,34.41983795,
3.889166832,34.15788651,
3.890833378,34.97790909,
3.892500162,34.68950653,
3.894166708,34.61887741,
3.895833254,35.16793442,
3.897500038,34.45048904,
3.899166584,34.68722153,
3.900833368,34.86812973,
3.902500153,34.64654922,
3.904166698,34.26378632,
3.905833483,34.48215103,
3.907500029,34.59510422,
3.909166813,34.69108963,
3.910833597,34.84275818,
3.912499905,34.52069855,
3.914166689,34.38695145,
3.915833235,35.14228439,
3.917500019,34.48478317,
3.919166803,34.40085983,
3.920833349,34.57870102,
3.922500134,35.00050354,
3.924166679,34.54501343,
3.925833464,35.02973175,
3.927500248,34.18758392,
3.929166555,34.93170166,
3.93083334,34.41965485,
3.932499886,34.11470795,
3.93416667,34.85708237,
3.935833454,34.55083847,
3.9375,35.02841949,
3.939166784,34.40408707,
3.94083333,34.49734116,
3.942500114,34.76846695,
3.944166899,34.57905579,
3.945833445,34.86465454,
3.94749999,34.16426086,
3.949166536,34.52921295,
3.950833321,34.3764267,
3.952500105,34.10759354,
3.954166651,34.56555939,
3.955833435,34.43040466,
3.957499981,34.35028076,
3.959166765,34.24442291,
3.960833549,35.26237488,
3.962500095,34.59027481,
3.96416688,34.64389801,
3.965833187,34.43278503,
3.967499971,34.42671967,
3.969166756,34.5006218,
3.970833302,34.69601822,
3.972500086,34.84945679,
3.974166632,34.37662125,
3.975833416,34.43582535,
3.9775002,35.11046219,
3.979166746,34.75586319,
3.98083353,34.8338089,
3.982499838,33.97821426,
3.984166622,34.53098679,
3.985833406,34.40675735,
3.987499952,34.65166092,
3.989166737,34.63023376,
3.990833282,34.87743378,
3.992500067,34.98559189,
3.994166851,34.34454346,
3.995833397,34.51243591,
3.997500181,33.86122131,
3.999166727,34.43304825,
4.000833511,34.2589798,
4.002500057,34.1299324,
4.004166603,34.61284637,
4.005833626,34.9206543,
4.007500172,34.68288803,
4.009166718,34.65644836,
4.010833263,34.1341629,
4.012499809,34.6368866,
4.014166832,34.5215683,
4.015833378,34.4002037,
4.017499924,34.86981964,
4.019166946,34.15003586,
4.020833492,34.50001907,
4.022500038,34.7018013,
4.024166584,34.56032944,
4.025833607,34.62518692,
4.027500153,34.4224205,
4.029166698,34.72218323,
4.030833244,34.47037888,
4.03249979,34.06891632,
4.034166813,34.05565262,
4.035833359,34.89290237,
4.037499905,34.4781189,
4.039166927,34.49766922,
4.040833473,34.59514236,
4.042500019,34.51518631,
4.044167042,33.81880188,
4.045833111,34.30147552,
4.047500134,34.27835846,
4.049166679,34.60940933,
4.050833225,34.61402893,
4.052500248,34.51079559,
4.054166794,34.58579254,
4.05583334,34.66117096,
4.057499886,34.41998291,
4.059166908,34.84521103,
4.060833454,34.17926788,
4.0625,33.95384216,
4.064166546,34.52481461,
4.065833092,34.0940361,
4.067500114,35.2798233,
4.06916666,34.66115952,
4.070833206,34.2675705,
4.072500229,34.56471634,
4.074166775,34.11891937,
4.075833321,33.67056656,
4.077500343,34.50283051,
4.079166889,35.00635529,
4.080833435,34.46605682,
4.082499981,34.19620514,
4.084166527,34.43753052,
4.085833549,34.49546432,
4.087500095,34.47571564,
4.089166641,34.55826569,
4.090833187,34.66180038,
4.09250021,34.67683411,
4.094166756,34.58713913,
4.095833302,34.67375946,
4.097500324,34.05560303,
4.099166393,34.4791069,
4.100833416,34.55652618,
4.102499962,34.59990311,
4.104166508,34.73761368,
4.10583353,34.93028641,
4.107500076,34.25649261,
4.109166622,34.38221741,
4.110833645,34.4985199,
4.112500191,34.51141739,
4.114166737,34.85022736,
4.115833282,34.21589661,
4.117499828,34.47134018,
4.119166851,34.87895966,
4.120833397,33.68999863,
4.122499943,34.1341629,
4.124166489,33.94329071,
4.125833511,34.44791794,
4.127500057,34.8069191,
4.129166603,34.32266617,
4.130833626,34.47873688,
4.132500172,34.54831314,
4.134166718,34.46498871,
4.135833263,34.82819366,
4.137499809,35.04634476,
4.139166832,34.41507339,
4.140833378,34.73427582,
4.142499924,34.25318146,
4.144166946,34.32371521,
4.145833492,34.07289505,
4.147500038,34.96009827,
4.149166584,34.62832642,
4.150833607,34.65848923,
4.152500153,33.95787811,
4.154166698,34.43437195,
4.155833244,34.30724335,
4.15749979,34.72623062,
4.159166813,34.47550583,
4.160833359,34.38110352,
4.162499905,34.41789246,
4.164166927,34.43201065,
4.165833473,34.64481354,
4.167500019,34.59358597,
4.169167042,34.37300491,
4.170833111,34.51926422,
4.172500134,34.22685623,
4.174166679,34.28508377,
4.175833225,34.09546661,
4.177500248,34.85023499,
4.179166794,34.30118179,
4.18083334,34.90445328,
4.182499886,34.15993881,
4.184166908,34.57580185,
4.185833454,34.39706802,
4.1875,33.89810944,
4.189166546,34.98100662,
4.190833092,34.80198288,
4.192500114,34.09895325,
4.19416666,34.02228928,
4.195833206,34.3981514,
4.197500229,34.03229141,
4.199166775,34.06079102,
4.200833321,34.22816849,
4.202500343,34.28497314,
4.204166889,34.61263275,
4.205833435,34.32103348,
4.207499981,34.20248032,
4.209166527,34.6406517,
4.210833549,34.73162842,
4.212500095,34.56238937,
4.214166641,33.8002739,
4.215833187,34.54124069,
4.21750021,34.50745773,
4.219166756,34.23535156,
4.220833302,34.92109299,
4.222500324,34.31128311,
4.224166393,34.51620102,
4.225833416,34.53995514,
4.227499962,34.27238464,
4.229166508,34.58324432,
4.23083353,34.48825073,
4.232500076,34.79747391,
4.234166622,34.26346588,
4.235833645,34.01470947,
4.237500191,34.22280502,
4.239166737,34.6173439,
4.240833282,34.72489929,
4.242499828,34.7265892,
4.244166851,34.4789238,
4.245833397,34.41448975,
4.247499943,34.53931808,
4.249166489,34.33323288,
4.250833511,34.60151291,
4.252500057,34.20954895,
4.254166603,35.01406479,
4.255833626,33.98892593,
4.257500172,35.05691147,
4.259166718,34.14631271,
4.260833263,34.11341858,
4.262499809,34.49043655,
4.264166832,34.05693436,
4.265833378,34.22538376,
4.267500401,34.01985168,
4.26916647,34.14123154,
4.270833492,34.51515198,
4.272500038,33.78233337,
4.274167061,34.33850861,
4.275833607,34.28878021,
4.277499676,34.52859879,
4.279166698,33.9837265,
4.280833244,34.46305847,
4.282500267,34.53770065,
4.284166813,34.62429428,
4.285833359,34.47619629,
4.287499905,34.51786423,
4.289166927,33.92844772,
4.290833473,34.41951752,
4.292500496,34.11708069,
4.294166565,34.12493896,
4.295833111,34.31352615,
4.297500134,33.96049881,
4.299166679,33.93727493,
4.300833702,34.79494858,
4.302499771,34.77275848,
4.304166794,34.48965836,
4.30583334,34.68808365,
4.307500362,34.31416321,
4.309166908,34.46965027,
4.310833454,34.00326538,
4.3125,34.41748047,
4.314166546,34.28749847,
4.315833569,34.45621872,
4.317500114,34.36323166,
4.31916666,34.01993942,
4.320833206,34.25767136,
4.322500229,34.38528061,
4.324166775,34.55534744,
4.325833797,34.33922958,
4.327499866,34.53668976,
4.329166889,34.37417984,
4.330833435,34.20651245,
4.332499981,34.29529572,
4.334167004,34.15374756,
4.335833073,34.25002289,
4.337500095,34.10946274,
4.339166641,34.43418884,
4.340833664,34.47850037,
4.34250021,34.23545456,
4.344166756,34.66775513,
4.345833302,34.69198608,
4.347500324,34.40485001,
4.34916687,34.74835205,
4.350833416,34.64657974,
4.352499962,34.31727982,
4.354166508,34.42625809,
4.35583353,34.02028275,
4.357500076,34.68045807,
4.359167099,34.64064407,
4.360833168,34.73280716,
4.362500191,34.25517273,
4.364166737,34.81536102,
4.365833759,34.60523605,
4.367500305,34.99402237,
4.369166374,34.60842133,
4.370833397,34.20643234,
4.372499943,34.70342255,
4.374166965,34.39167404,
4.375833511,34.41888428,
4.377500057,33.85105133,
4.379166603,34.09070969,
4.380833626,34.28710938,
4.382500172,34.16644669,
4.384167194,34.11229706,
4.385833263,34.12689209,
4.387499809,34.12171173,
4.389166832,34.29117584,
4.390833378,34.28406906,
4.392500401,34.15310669,
4.39416647,34.13812256,
4.395833492,34.59208298,
4.397500038,34.06027603,
4.399167061,33.88723755,
4.400833607,34.22997284,
4.402499676,34.50824356,
4.404166698,34.58095932,
4.405833244,34.16482162,
4.407500267,33.94352341,
4.409166813,34.47626495,
4.410833359,34.44556427,
4.412499905,33.84563828,
4.414166927,34.46541977,
4.415833473,34.33659744,
4.417500496,34.41069794,
4.419166565,34.34488678,
4.420833111,34.20921326,
4.422500134,34.41032028,
4.424166679,34.10331726,
4.425833702,34.52165985,
4.427499771,34.89497375,
4.429166794,34.2080574,
4.43083334,34.14522552,
4.432500362,34.32483673,
4.434166908,34.62096786,
4.435833454,34.45221329,
4.4375,33.55488968,
4.439166546,34.5081749,
4.440833569,34.38067627,
4.442500114,34.15494537,
4.44416666,33.85202789,
4.445833206,34.97839355,
4.447500229,34.05538177,
4.449166775,34.38954163,
4.450833797,34.46015549,
4.452499866,34.24555969,
4.454166889,34.45168304,
4.455833435,34.2522316,
4.457499981,34.10256958,
4.459167004,34.73878098,
4.460833073,34.26285934,
4.462500095,34.05191803,
4.464166641,34.19623184,
4.465833664,34.17090607,
4.46750021,34.9681778,
4.469166756,34.25941849,
4.470833302,34.71385956,
4.472500324,33.82708359,
4.47416687,34.38941193,
4.475833416,33.91548538,
4.477499962,34.73039627,
4.479166508,34.06866455,
4.48083353,33.70204926,
4.482500076,34.28410721,
4.484167099,34.00242615,
4.485833168,34.22574997,
4.487500191,34.12094879,
4.489166737,34.11486435,
4.490833759,34.47719955,
4.492500305,34.34207916,
4.494166374,34.34864807,
4.495833397,34.08897781,
4.497499943,34.21596527,
4.499166965,34.21598816,
4.500833511,34.40814209,
4.502500057,34.41257477,
4.504166603,34.6375885,
4.505833626,34.11241531,
4.507500172,34.43116379,
4.509167194,34.38316727,
4.510833263,34.65270615,
4.512499809,33.90319443,
4.514166832,34.25607681,
4.515833378,34.29787445,
4.517500401,34.66733932,
4.51916647,34.26026535,
4.520833492,34.57600784,
4.522500038,34.02312088,
4.524167061,34.34923935,
4.525833607,34.48437881,
4.527499676,33.69428635,
4.529166698,34.63683319,
4.530833244,33.96002579,
4.532500267,34.61499786,
4.534166813,34.11280823,
4.535833359,34.27924728,
4.537499905,34.17326355,
4.539166927,34.28521729,
4.540833473,34.4839592,
4.542500496,34.04461288,
4.544166565,34.7795105,
4.545833111,34.75519943,
4.547500134,34.32442474,
4.549166679,33.87152863,
4.550833702,34.08891296,
4.552499771,34.11587906,
4.554166794,34.64036179,
4.55583334,34.00705719,
4.557500362,34.04625702,
4.559166908,34.66521072,
4.560833454,34.55341721,
4.5625,34.40619659,
4.564166546,34.07337952,
4.565833569,34.35668945,
4.567500114,33.91615295,
4.56916666,34.50558472,
4.570833206,33.73054504,
4.572500229,34.54257202,
4.574166775,34.3128891,
4.575833797,34.18345261,
4.577499866,33.81707001,
4.579166889,34.83536148,
4.580833435,34.40089035,
4.582499981,34.23257065,
4.584167004,34.12668228,
4.585833073,34.28365326,
4.587500095,34.00097656,
4.589166641,34.10010529,
4.590833664,33.65213013,
4.59250021,34.15665817,
4.594166756,34.11332321,
4.595833302,34.34603119,
4.597500324,34.34043884,
4.59916687,33.93848038,
4.600833416,34.32510376,
4.602499962,34.19296646,
4.604166508,34.53566742,
4.60583353,34.17194748,
4.607500076,34.20103455,
4.609167099,34.44620514,
4.610833168,34.09479141,
4.612500191,34.13464355,
4.614166737,34.69848251,
4.615833759,34.29257202,
4.617500305,33.68347931,
4.619166374,34.34171295,
4.620833397,34.03155899,
4.622499943,34.08125305,
4.624166965,34.19265366,
4.625833511,34.28971863,
4.627500057,34.18170929,
4.629166603,34.14163971,
4.630833626,34.4149704,
4.632500172,34.45560074,
4.634167194,34.31155396,
4.635833263,33.81561661,
4.637499809,34.43975067,
4.639166832,33.7239418,
4.640833378,33.90589523,
4.642500401,34.25928116,
4.64416647,34.4102478,
4.645833492,34.53037262,
4.647500038,34.28533936,
4.649167061,34.23931885,
4.650833607,34.40887451,
4.652499676,34.34466553,
4.654166698,34.14570999,
4.655833244,33.96704865,
4.657500267,34.9161377,
4.659166813,33.85150146,
4.660833359,34.00745392,
4.662499905,34.40171051,
4.664166927,34.67859268,
4.665833473,33.59604645,
4.667500496,34.12714386,
4.669166565,34.22131729,
4.670833111,34.00068283,
4.672500134,34.53260422,
4.674166679,34.02231979,
4.675833702,34.25307465,
4.677499771,34.38005066,
4.679166794,34.04299927,
4.68083334,34.58754349,
4.682500362,34.24689102,
4.684166908,34.2773819,
4.685833454,34.29650497,
4.6875,34.20881653,
4.689166546,34.21509171,
4.690833569,34.19350433,
4.692500114,34.17700958,
4.69416666,33.97989655,
4.695833206,34.14271927,
4.697500229,34.77099609,
4.699166775,34.24806213,
4.700833797,34.03129196,
4.702499866,34.96683121,
4.704166889,34.12404633,
4.705833435,34.16511154,
4.707499981,34.46390533,
4.709167004,33.91902542,
4.710833073,34.3394928,
4.712500095,33.86288452,
4.714166641,33.80786896,
4.715833664,34.09671402,
4.71750021,34.69618225,
4.719166756,34.54695892,
4.720833302,34.54108047,
4.722500324,34.93212509,
4.72416687,34.37468719,
4.725833416,33.9645462,
4.727499962,33.91142273,
4.729166508,33.63266373,
4.73083353,34.38214874,
4.732500076,34.43396759,
4.734167099,33.93928146,
4.735833168,34.15415192,
4.737500191,33.81819534,
4.739166737,34.21808624,
4.740833759,34.23629379,
4.742500305,34.17515564,
4.744166374,34.08392334,
4.745833397,34.53272629,
4.747499943,34.52550888,
4.749166965,34.43941498,
4.750833511,33.67857742,
4.752500057,34.23336792,
4.754166603,34.07247925,
4.755833626,34.09077454,
4.757500172,34.42380905,
4.759167194,34.82076263,
4.760833263,33.6443367,
4.762499809,34.21221161,
4.764166832,34.24777222,
4.765833378,34.68611526,
4.767500401,34.46145248,
4.76916647,34.50140762,
4.770833492,34.23390198,
4.772500038,33.90952682,
4.774167061,33.90036774,
4.775833607,34.43358612,
4.777499676,33.58209229,
4.779166698,34.22858047,
4.780833244,33.98204041,
4.782500267,34.02510834,
4.784166813,34.44948959,
4.785833359,34.20708466,
4.787499905,33.89662552,
4.789166927,34.56655502,
4.790833473,34.14432907,
4.792500496,34.60049438,
4.794166565,34.07109451,
4.795833111,34.44080734,
4.797500134,34.08299637,
4.799166679,34.16226578,
4.800833702,34.10949326,
4.802499771,33.7411232,
4.804166794,34.18501282,
4.80583334,33.92433548,
4.807500362,34.17851257,
4.809166908,33.98227692,
4.810833454,34.21334076,
4.8125,34.22470093,
4.814166546,34.43991089,
4.815833569,34.08219147,
4.817500114,34.22690964,
4.81916666,33.83682251,
4.820833206,34.19670868,
4.822500229,34.06494522,
4.824166775,33.88444901,
4.825833797,33.9256134,
4.827499866,33.95653534,
4.829166889,34.43323517,
4.830833435,34.35604858,
4.832499981,33.27574539,
4.834167004,33.85735703,
4.835833073,33.69246292,
4.837500095,34.36337662,
4.839166641,34.51687241,
4.840833664,34.14240265,
4.84250021,34.2657547,
4.844166756,33.73852158,
4.845833302,34.17721558,
4.847500324,34.61696625,
4.84916687,33.8417511,
4.850833416,34.59076691,
4.852499962,33.60001755,
4.854166508,34.00481033,
4.85583353,33.99783707,
4.857500076,34.12561035,
4.859167099,34.0609436,
4.860833168,34.46856308,
4.862500191,34.13698196,
4.864166737,34.02241898,
4.865833759,33.94527817,
4.867500305,33.93257904,
4.869166374,34.1921196,
4.870833397,34.33407974,
4.872499943,34.01438904,
4.874166965,34.21064758,
4.875833511,34.0890007,
4.877500057,33.78331375,
4.879166603,33.88438034,
4.880833626,34.01987839,
4.882500172,33.66609955,
4.884167194,34.19027328,
4.885833263,34.18287277,
4.887499809,34.15823364,
4.889166832,33.92879105,
4.890833378,33.95461273,
4.892500401,33.86101913,
4.89416647,34.10474777,
4.895833492,34.19277573,
4.897500038,34.02216339,
4.899167061,33.74523544,
4.900833607,34.21550369,
4.902499676,33.88474274,
4.904166698,33.76391983,
4.905833244,33.87665558,
4.907500267,33.53660202,
4.909166813,33.54852295,
4.910833359,34.21009445,
4.912499905,34.04267883,
4.914166927,34.79693222,
4.915833473,34.0679245,
4.917500496,34.13490677,
4.919166565,34.03650665,
4.920833111,34.30924225,
4.922500134,34.31295395,
4.924166679,34.60125351,
4.925833702,34.3641777,
4.927499771,34.16194916,
4.929166794,34.18553162,
4.93083334,33.94520187,
4.932500362,33.37598038,
4.934166908,34.02081299,
4.935833454,34.27246857,
4.9375,33.72309494,
4.939166546,34.19968414,
4.940833569,34.45105743,
4.942500114,33.80768204,
4.94416666,33.99577713,
4.945833206,34.11111069,
4.947500229,34.15359879,
4.949166775,33.73000717,
4.950833797,33.8857193,
4.952499866,34.53202057,
4.954166889,33.52698517,
4.955833435,33.99208069,
4.957499981,34.50523376,
4.959167004,33.58894348,
4.960833073,34.04504395,
4.962500095,34.34243011,
4.964166641,34.08963776,
4.965833664,34.12492371,
4.96750021,34.31192017,
4.969166756,33.95546722,
4.970833302,33.57672119,
4.972500324,33.76592636,
4.97416687,34.31508255,
4.975833416,34.62403488,
4.977499962,34.24873352,
4.979166508,34.03326035,
4.98083353,34.49876785,
4.982500076,34.25593948,
4.984167099,34.29629517,
4.985833168,33.77975845,
4.987500191,34.1749649,
4.989166737,34.00434875,
4.990833759,34.24545288,
4.992500305,34.51829529,
4.994166374,34.05332184,
4.995833397,34.33786011,
4.997499943,34.46730042,
4.999166965,33.86903381,
5.000833511,34.35010529,
5.002500057,34.91976929,
5.004166603,34.24958801,
5.005833626,34.23690796,
5.007500172,34.46121979,
5.009167194,34.0083046,
5.010833263,33.79732132,
5.012499809,34.04653931,
5.014166832,34.11200333,
5.015833378,34.0954361,
5.017500401,34.47386551,
5.01916647,33.93637085,
5.020833492,34.21790314,
5.022500038,33.89532852,
5.024167061,34.06651306,
5.025833607,34.06404877,
5.027499676,34.03014755,
5.029166698,33.72184372,
5.030833244,34.1530838,
5.032500267,34.15322495,
5.034166813,33.70315552,
5.035833359,33.87300491,
5.037499905,34.10407257,
5.039166927,33.82281876,
5.040833473,33.82851791,
5.042500496,34.0896492,
5.044166565,33.4831543,
5.045833111,33.78757095,
5.047500134,34.06007385,
5.049166679,34.22615814,
5.050833702,34.31014633,
5.052499771,33.28073883,
5.054166794,34.24223709,
5.05583334,34.21450043,
5.057500362,33.77916336,
5.059166908,34.31868362,
5.060833454,33.73992157,
5.0625,33.97388077,
5.064166546,34.03393173,
5.065833569,34.18513107,
5.067500114,33.77508545,
5.06916666,34.37249374,
5.070833206,33.61664963,
5.072500229,33.68394089,
5.074166775,33.89327621,
5.075833797,34.04918289,
5.077499866,34.10437775,
5.079166889,33.78767014,
5.080833435,33.6748085,
5.082499981,33.64894104,
5.084167004,34.02961349,
5.085833073,33.98241425,
5.087500095,34.33306503,
5.089166641,34.10798645,
5.090833664,33.8972168,
5.09250021,34.51583099,
5.094166756,34.07427216,
5.095833302,33.94385529,
5.097500324,34.33374786,
5.09916687,34.09456253,
5.100833416,34.31571198,
5.102499962,34.4312973,
5.104166508,33.74341965,
5.10583353,33.67904663,
5.107500076,34.09451675,
5.109167099,33.5283699,
5.110833168,33.70608139,
5.112500191,34.22388077,
5.114166737,34.69055939,
5.115833759,33.43811035,
5.117500305,33.87101364,
5.119166374,33.83250046,
5.120833397,34.39616394,
5.122499943,34.04650879,
5.124166965,33.90463257,
5.125833511,33.95347977,
5.127500057,34.15599442,
5.129166603,33.96908569,
5.130833626,33.91399765,
5.132500172,33.69496536,
5.134167194,33.97329712,
5.135833263,34.16136551,
5.137499809,34.16304016,
5.139166832,33.94657898,
5.140833378,33.12271881,
5.142500401,34.16143799,
5.14416647,33.70301056,
5.145833492,34.10095978,
5.147500038,33.84531784,
5.149167061,33.87081528,
5.150833607,34.00508881,
5.152499676,34.36553192,
5.154166698,33.46220779,
5.155833244,33.90239716,
5.157500267,33.49235153,
5.159166813,34.14067078,
5.160833359,33.69230652,
5.162499905,33.87511826,
5.164166927,33.782341,
5.165833473,33.95281982,
5.167500496,34.1562767,
5.169166565,34.00889587,
5.170833111,33.98842239,
5.172500134,33.49068069,
5.174166679,33.87348175,
5.175833702,33.47222137,
5.177499771,34.64381409,
5.179166794,33.69862366,
5.18083334,33.85574341,
5.182500362,33.78987122,
5.184166908,34.33221054,
5.185833454,33.3853569,
5.1875,34.32531738,
5.189166546,33.88479233,
5.190833569,34.09276199,
5.192500114,33.90851212,
5.19416666,33.78347015,
5.195833206,33.78358459,
5.197500229,33.7344017,
5.199166775,34.33705902,
5.200833797,34.16819,
5.202499866,33.73042679,
5.204166889,33.68782043,
5.205833435,33.88614655,
5.207499981,34.34401321,
5.209167004,33.91036606,
5.210833073,34.04157257,
5.212500095,33.63178635,
5.214166641,34.18884659,
5.215833664,33.92481995,
5.21750021,34.50244904,
5.219166756,34.31987381,
5.220833302,34.02408218,
5.222500324,33.67399597,
5.22416687,34.2507515,
5.225833416,34.69061279,
5.227499962,34.31712341,
5.229166508,33.98340607,
5.23083353,34.15467834,
5.232500076,33.56639481,
5.234167099,33.32374191,
5.235833168,34.14839172,
5.237500191,33.57899094,
5.239166737,34.08879471,
5.240833759,34.18325043,
5.242500305,34.133255,
5.244166374,34.19681549,
5.245833397,33.92194748,
5.247499943,33.92763519,
5.249166965,34.44342041,
5.250833511,34.2452774,
5.252500057,33.76629639,
5.254166603,33.79214478,
5.255833626,33.66817474,
5.257500172,33.51984406,
5.259167194,33.7298851,
5.260833263,34.39564514,
5.262499809,33.834095,
5.264166832,34.04681778,
5.265833378,34.08096313,
5.267500401,33.80971527,
5.26916647,33.81904984,
5.270833492,34.34020615,
5.272500038,34.13313675,
5.274167061,33.92812729,
5.275833607,34.04396057,
5.277499676,34.35134506,
5.279166698,33.98318863,
5.280833244,34.08103943,
5.282500267,34.11461258,
5.284166813,33.61998367,
5.285833359,34.31684494,
5.287499905,34.32134628,
5.289166927,34.36692047,
5.290833473,33.84582901,
5.292500496,33.74351883,
5.294166565,33.99125671,
5.295833111,33.85167313,
5.297500134,34.12099838,
5.299166679,33.64303207,
5.300833702,33.93028259,
5.302499771,34.36170959,
5.304166794,34.26227951,
5.30583334,33.85189438,
5.307500362,34.65771484,
5.309166908,33.91801071,
5.310833454,34.20541,
5.3125,34.1592865,
5.314166546,34.9421463,
5.315833569,34.54141235,
5.317500114,33.71630096,
5.31916666,33.7040329,
5.320833206,34.00969696,
5.322500229,34.00091171,
5.324166775,33.564991,
5.325833797,33.36709976,
5.327499866,33.99539185,
5.329166889,33.72441483,
5.330833435,33.24672699,
5.332499981,33.76815414,
5.334167004,33.90579987,
5.335833073,33.84898376,
5.337500095,34.04169083,
5.339166641,33.66254425,
5.340833664,33.74436569,
5.34250021,34.39413071,
5.344166756,33.97220612,
5.345833302,34.27807617,
5.347500324,33.8184166,
5.34916687,33.82913971,
5.350833416,33.80676651,
5.352499962,34.35577011,
5.354166508,33.60712051,
5.35583353,34.07886887,
5.357500076,34.0188446,
5.359167099,33.89849854,
5.360833168,33.65021133,
5.362500191,33.35501099,
5.364166737,33.87466812,
5.365833759,33.82084274,
5.367500305,32.97256851,
5.369166374,33.86614227,
5.370833397,33.68979263,
5.372499943,33.46305466,
5.374166965,34.48681259,
5.375833511,33.98229218,
5.377500057,33.71029663,
5.379166603,33.49893951,
5.380833626,33.45879745,
5.382500172,33.73527145,
5.384167194,33.829422,
5.385833263,34.10294724,
5.387499809,33.94620895,
5.389166832,34.41736984,
5.390833378,33.88349152,
5.392500401,34.16055679,
5.39416647,33.82593536,
5.395833492,34.34732819,
5.397500038,33.37086105,
5.399167061,34.21638107,
5.400833607,33.94287872,
5.402499676,33.95447922,
5.404166698,33.87534714,
5.405833244,33.91068649,
5.407500267,33.96579361,
5.409166813,33.76259995,
5.410833359,33.77801895,
5.412499905,33.83452225,
5.414166927,34.17619324,
5.415833473,34.23487473,
5.417500496,34.27593994,
5.419166565,34.06887817,
5.420833111,34.24230576,
5.422500134,34.05164337,
5.424166679,33.95324326,
5.425833702,33.8947258,
5.427499771,33.6832428,
5.429166794,34.3756485,
5.43083334,34.19486618,
5.432500362,34.32536316,
5.434166908,34.00017548,
5.435833454,33.83024597,
5.4375,34.05274582,
5.439166546,33.77362061,
5.440833569,33.86573792,
5.442500114,33.8688736,
5.44416666,33.6252594,
5.445833206,34.25955582,
5.447500229,34.19785309,
5.449166775,33.81708145,
5.450833797,34.57476425,
5.452499866,34.22504425,
5.454166889,34.05422211,
5.455833435,34.00828552,
5.457499981,34.13905716,
5.459167004,34.30632401,
5.460833073,33.81800842,
5.462500095,34.11798477,
5.464166641,34.10231781,
5.465833664,34.30118179,
5.46750021,33.85997772,
5.469166756,33.51689911,
5.470833302,33.66991425,
5.472500324,34.28936386,
5.47416687,33.8887825,
5.475833416,33.93784714,
5.477499962,34.38909912,
5.479166508,34.08940125,
5.48083353,34.12601471,
5.482500076,34.41436005,
5.484167099,34.0316391,
5.485833168,33.0599556,
5.487500191,33.88396072,
5.489166737,34.17068863,
5.490833759,34.06685638,
5.492500305,33.63912582,
5.494166374,33.70269012,
5.495833397,33.74612045,
5.497499943,34.0951004,
5.499166965,34.07651138,
5.500833511,33.89790726,
5.502500057,34.16656876,
5.504166603,34.07095718,
5.505833626,34.5086937,
5.507500172,34.00616074,
5.509167194,33.56325531,
5.510833263,34.33882523,
5.512499809,33.54621887,
5.514166832,33.86441422,
5.515833378,33.56757355,
5.517500401,33.35017395,
5.51916647,33.75280762,
5.520833492,33.87434769,
5.522500038,34.19061661,
5.524167061,34.13268661,
5.525833607,34.19566727,
5.527499676,33.83024597,
5.529166698,34.15263367,
5.530833244,33.30736542,
5.532500267,34.04205322,
5.534166813,33.90813065,
5.535833359,33.75642776,
5.537499905,34.18024063,
5.539166927,34.21727753,
5.540833473,33.6312294,
5.542500496,34.34473038,
5.544166565,33.78329086,
5.545833111,34.00517654,
5.547500134,33.68066406,
5.549166679,34.28406525,
5.550833702,34.2278595,
5.552499771,33.80840302,
5.554166794,33.59246063,
5.55583334,33.84119415,
5.557500362,34.06429291,
5.559166908,33.7445755,
5.560833454,33.74249649,
5.5625,33.61139297,
5.564166546,34.1883812,
5.565833569,33.62192535,
5.567500114,34.15298843,
5.56916666,33.6701889,
5.570833206,34.10417938,
5.572500229,34.03071976,
5.574166775,33.45059204,
5.575833797,33.71023178,
5.577499866,33.84016418,
5.579166889,33.84384918,
5.580833435,33.67337799,
5.582499981,34.033535,
5.584167004,34.12963486,
5.585833073,34.03310776,
5.587500095,33.76643372,
5.589166641,34.07217026,
5.590833664,33.68569183,
5.59250021,34.19078827,
5.594166756,33.82222366,
5.595833302,33.55299377,
5.597500324,33.60066986,
5.59916687,33.71394348,
5.600833416,33.79641724,
5.602499962,34.132061,
5.604166508,34.00365448,
5.60583353,33.35032272,
5.607500076,33.45218658,
5.609167099,33.6648407,
5.610833168,34.17251205,
5.612500191,33.95050812,
5.614166737,33.9125061,
5.615833759,33.53713989,
5.617500305,33.50332642,
5.619166374,34.46495438,
5.620833397,34.04260254,
5.622499943,33.79461288,
5.624166965,34.45363617,
5.625833511,34.27101517,
5.627500057,33.55060196,
5.629166603,33.79600525,
5.630833626,34.04824829,
5.632500172,33.39015579,
5.634167194,33.61878204,
5.635833263,33.67675781,
5.637499809,33.72766495,
5.639166832,34.23604202,
5.640833378,34.51643372,
5.642500401,33.53575134,
5.64416647,33.87196732,
5.645833492,33.91488266,
5.647500038,33.86394882,
5.649167061,33.83703613,
5.650833607,34.07183838,
5.652499676,33.73871994,
5.654166698,33.86863327,
5.655833244,33.36916351,
5.657500267,33.96360016,
5.659166813,33.83612823,
5.660833359,33.99388885,
5.662499905,33.36384964,
5.664166927,33.49677277,
5.665833473,34.20862961,
5.667500496,34.14346695,
5.669166565,34.10013199,
5.670833111,34.15529633,
5.672500134,33.85025787,
5.674166679,34.23648453,
5.675833702,34.41057968,
5.677499771,33.47339249,
5.679166794,33.89958191,
5.68083334,34.37015533,
5.682500362,34.17510986,
5.684166908,33.86674118,
5.685833454,33.09909058,
5.6875,33.56105804,
5.689166546,33.99795914,
5.690833569,33.73681259,
5.692500114,33.83577728,
5.69416666,34.06875229,
5.695833206,34.43772507,
5.697500229,34.13539124,
5.699166775,33.74403,
5.700833797,33.61185837,
5.702499866,34.20944214,
5.704166889,33.99848938,
5.705833435,33.41474915,
5.707499981,34.08389664,
5.709167004,34.06988525,
5.710833073,34.18961334,
5.712500095,33.38591385,
5.714166641,33.83303452,
5.715833664,34.30802917,
5.71750021,33.87810135,
5.719166756,34.45170975,
5.720833302,33.93980026,
5.722500324,33.9431076,
5.72416687,34.06051636,
5.725833416,34.23675537,
5.727499962,33.70936584,
5.729166508,33.70906067,
5.73083353,34.07640839,
5.732500076,33.55256653,
5.734167099,33.86116409,
5.735833168,33.53988266,
5.737500191,33.71948624,
5.739166737,34.28743744,
5.740833759,33.93696976,
5.742500305,33.48837662,
5.744166374,34.28943253,
5.745833397,34.06165314,
5.747499943,33.82290649,
5.749166965,33.53059769,
5.750833511,33.96715546,
5.752500057,33.76945496,
5.754166603,33.89759445,
5.755833626,33.71340942,
5.757500172,33.77012253,
5.759167194,33.89319229,
5.760833263,33.79614639,
5.762499809,34.04405975,
5.764166832,33.6744957,
5.765833378,33.78563309,
5.767500401,34.13734818,
5.76916647,33.4821434,
5.770833492,34.17344666,
5.772500038,33.78113174,
5.774167061,33.664608,
5.775833607,34.08644485,
5.777499676,33.84700012,
5.779166698,33.69797897,
5.780833244,33.83863831,
5.782500267,34.0937767,
5.784166813,33.49668503,
5.785833359,33.49382401,
5.787499905,33.22284698,
5.789166927,33.68798828,
5.790833473,33.75520325,
5.792500496,34.15460205,
5.794166565,33.73828506,
5.795833111,33.94403458,
5.797500134,33.80785751,
5.799166679,33.59461212,
5.800833702,33.66967773,
5.802499771,33.92897797,
5.804166794,34.07595062,
5.80583334,33.95009232,
5.807500362,33.68876266,
5.809166908,34.25282669,
5.810833454,33.37176514,
5.8125,33.98637772,
5.814166546,33.9618454,
5.815833569,33.77336884,
5.817500114,33.87096786,
5.81916666,34.24065399,
5.820833206,32.97257233,
5.822500229,34.26455307,
5.824166775,34.1603508,
5.825833797,33.88778687,
5.827499866,33.57354736,
5.829166889,33.62075806,
5.830833435,34.10454178,
5.832499981,33.31101608,
5.834167004,34.44425201,
5.835833073,33.41752625,
5.837500095,33.61465836,
5.839166641,34.21846771,
5.840833664,33.7989006,
5.84250021,33.94508362,
5.844166756,33.75542068,
5.845833302,33.96330643,
5.847500324,33.95245743,
5.84916687,33.65970993,
5.850833416,33.68255997,
5.852499962,33.73162842,
5.854166508,33.69320679,
5.85583353,34.49102402,
5.857500076,33.64506912,
5.859167099,33.36186218,
5.860833168,33.4884491,
5.862500191,33.93091583,
5.864166737,34.24193573,
5.865833759,34.00696564,
5.867500305,33.6225853,
5.869166374,34.10600662,
5.870833397,33.80978775,
5.872499943,33.25073624,
5.874166965,34.07865143,
5.875833511,33.95523453,
5.877500057,33.38110352,
5.879166603,33.77475739,
5.880833626,34.16651535,
5.882500172,33.76804733,
5.884167194,33.62974167,
5.885833263,33.70996475,
5.887499809,33.91430283,
5.889166832,34.08520126,
5.890833378,34.47592926,
5.892500401,33.82410431,
5.89416647,33.66379547,
5.895833492,33.5019989,
5.897500038,33.22120285,
5.899167061,34.33908844,
5.900833607,33.67090225,
5.902499676,33.83164978,
5.904166698,33.75679398,
5.905833244,33.63581467,
5.907500267,33.83816147,
5.909166813,33.91489792,
5.910833359,33.72328568,
5.912499905,34.13873291,
5.914166927,33.90600586,
5.915833473,33.81442261,
5.917500496,34.38795471,
5.919166565,33.31347275,
5.920833111,33.26138687,
5.922500134,33.87112427,
5.924166679,33.51045609,
5.925833702,34.02806091,
5.927499771,33.77166748,
5.929166794,33.72264862,
5.93083334,34.54077911,
5.932500362,33.92366409,
5.934166908,33.96257019,
5.935833454,34.19889832,
5.9375,33.82468796,
5.939166546,34.05117798,
5.940833569,34.41314697,
5.942500114,33.76555634,
5.94416666,33.95544052,
5.945833206,34.22305679,
5.947500229,34.20130157,
5.949166775,33.91128922,
5.950833797,34.08283615,
5.952499866,33.67033005,
5.954166889,34.37949753,
5.955833435,33.50613403,
5.957499981,34.2383461,
5.959167004,33.37859344,
5.960833073,33.4133606,
5.962500095,34.14277267,
5.964166641,33.65956497,
5.965833664,34.06502914,
5.96750021,33.71425629,
5.969166756,33.79844666,
5.970833302,33.84312439,
5.972500324,34.25976181,
5.97416687,33.50053024,
5.975833416,33.94607925,
5.977499962,33.00190735,
5.979166508,34.08051682,
5.98083353,33.98366547,
5.982500076,33.5700531,
5.984167099,33.42881393,
5.985833168,33.80332947,
5.987500191,33.36122131,
5.989166737,33.53350449,
5.990833759,33.91431046,
5.992500305,33.37909698,
5.994166374,33.74486542,
5.995833397,33.38434982,
5.997499943,33.88442612,
5.999166965,33.63239288,
6.000833511,33.81448364,
6.002500057,33.55899429,
6.004166603,33.63496017,
6.005833626,33.94574356,
6.007500172,33.50524521,
6.009167194,33.80964279,
6.010833263,33.33294296,
6.012499809,34.09017563,
6.014166832,33.88269043,
6.015833378,33.81665421,
6.017500401,34.44361496,
6.01916647,33.82805252,
6.020833492,33.70773315,
6.022500038,33.53513336,
6.024167061,34.12291718,
6.025833607,33.77043152,
6.027499676,33.47460556,
6.029166698,33.72808456,
6.030833244,34.0950737,
6.032500267,34.02534103,
6.034166813,33.3500824,
6.035833359,33.77694702,
6.037499905,33.98651886,
6.039166927,33.80121613,
6.040833473,33.94392395,
6.042500496,33.87495804,
6.044166565,33.54324722,
6.045833111,33.37247086,
6.047500134,33.96715927,
6.049166679,33.7054863,
6.050833702,34.12989044,
6.052499771,34.04577637,
6.054166794,33.91333771,
6.05583334,33.69931412,
6.057500362,33.4719162,
6.059166908,34.13682556,
6.060833454,34.30862427,
6.0625,34.0075531,
6.064166546,33.22189713,
6.065833569,33.43215179,
6.067500114,33.71282959,
6.06916666,33.67791367,
6.070833206,33.88562393,
6.072500229,33.72821045,
6.074166775,33.34579849,
6.075833797,33.89682388,
6.077499866,33.72829056,
6.079166889,33.5341301,
6.080833435,33.7086525,
6.082499981,34.37910843,
6.084167004,33.79730988,
6.085833073,33.94210434,
6.087500095,33.89910126,
6.089166641,33.62935638,
6.090833664,33.7807312,
6.09250021,33.6265564,
6.094166756,33.68772507,
6.095833302,34.08844376,
6.097500324,33.36816025,
6.09916687,33.86534882,
6.100833416,33.69142151,
6.102499962,33.65864944,
6.104166508,33.19340515,
6.10583353,33.3519516,
6.107500076,34.07654572,
6.109167099,33.90920258,
6.110833168,32.92389297,
6.112500191,34.12453461,
6.114166737,33.76970673,
6.115833759,34.27687073,
6.117500305,33.92241287,
6.119166374,33.5915184,
6.120833397,33.8809967,
6.122499943,33.15919495,
6.124166965,33.87914276,
6.125833511,33.95807648,
6.127500057,33.73757935,
6.129166603,33.23873138,
6.130833626,33.28291321,
6.132500172,33.85389328,
6.134167194,33.95458221,
6.135833263,33.72027588,
6.137499809,34.0968132,
6.139166832,33.82439804,
6.140833378,33.95425034,
6.142500401,34.12100983,
6.14416647,33.21942139,
6.145833492,33.72249603,
6.147500038,34.08312988,
6.149167061,33.66430664,
6.150833607,34.18003845,
6.152499676,33.54430389,
6.154166698,33.75373077,
6.155833244,33.95501709,
6.157500267,33.59534454,
6.159166813,34.40917206,
6.160833359,33.68268967,
6.162499905,33.28700256,
6.164166927,33.56859207,
6.165833473,33.9760437,
6.167500496,33.94078445,
6.169166565,33.91555023,
6.170833111,33.7044487,
6.172500134,33.50702286,
6.174166679,34.09104156,
6.175833702,34.43219376,
6.177499771,33.62388992,
6.179166794,33.26061249,
6.18083334,33.7343483,
6.182500362,33.45648193,
6.184166908,33.76520538,
6.185833454,33.95170593,
6.1875,33.66017532,
6.189166546,33.94839096,
6.190833569,33.70251846,
6.192500114,33.69176102,
6.19416666,34.04323196,
6.195833206,33.55654144,
6.197500229,33.6933136,
6.199166775,33.90918732,
6.200833797,33.69363403,
6.202499866,33.20205688,
6.204166889,33.70295334,
6.205833435,34.20629501,
6.207499981,33.68557358,
6.209167004,33.63143158,
6.210833073,34.21342087,
6.212500095,34.18190384,
6.214166641,33.32974625,
6.215833664,33.65584946,
6.21750021,33.59146118,
6.219166756,33.69592285,
6.220833302,33.63755035,
6.222500324,33.85638046,
6.22416687,33.93307877,
6.225833416,33.72265625,
6.227499962,33.59697723,
6.229166508,33.25540543,
6.23083353,33.57382202,
6.232500076,33.97914505,
6.234167099,33.68685913,
6.235833168,33.4622879,
6.237500191,33.82420349,
6.239166737,34.08000946,
6.240833759,33.83903885,
6.242500305,33.61725616,
6.244166374,33.52494049,
6.245833397,33.78107452,
6.247499943,33.36975479,
6.249166965,34.18798447,
6.250833511,33.68508911,
6.252500057,33.81776047,
6.254166603,33.82013702,
6.255833626,34.08758926,

