1,,
Time (min),Intensity (a.u.),
0.0008333333535,50.94465256,
0.002500000177,50.77268982,
0.004166666884,50.26519394,
0.005833333358,51.03994751,
0.007500000298,49.9893837,
0.009166667238,50.95211029,
0.01083333418,50.9852562,
0.01250000019,51.08986664,
0.01416666713,50.55316925,
0.01583333313,50.56946564,
0.01750000194,51.1027565,
0.01916666701,50.40166855,
0.02083333395,51.12601852,
0.02250000089,51.24870682,
0.02416666783,50.53913498,
0.02583333477,50.84923553,
0.02749999985,50.43832397,
0.02916666679,50.39270782,
0.03083333373,50.62631226,
0.03250000253,51.36296844,
0.03416666761,50.28055954,
0.03583333641,51.01597977,
0.03750000149,51.1310463,
0.03916667029,50.78398514,
0.04083333537,50.50307465,
0.04250000045,50.88243484,
0.04416666925,50.6242485,
0.04583333433,50.26729202,
0.04750000313,50.68746185,
0.04916666821,51.25966644,
0.05083333328,50.82648849,
0.05250000209,51.07267761,
0.05416666716,51.19146729,
0.05583333597,50.48228836,
0.05750000104,51.21118546,
0.05916666612,50.76680374,
0.06083333492,50.44624329,
0.0625,50.84051895,
0.06416667253,50.74221039,
0.0658333376,50.66717148,
0.06750000268,51.12150192,
0.06916666776,50.93800735,
0.07083333284,50.99353409,
0.07249999791,50.916996,
0.07416667044,51.29178619,
0.07583333552,50.9583931,
0.0775000006,50.26739883,
0.07916666567,50.83275986,
0.08083333075,51.06539917,
0.08250000328,50.82447433,
0.08416666836,51.02582169,
0.08583333343,50.76407242,
0.08749999851,50.41522598,
0.08916666359,50.22145081,
0.09083333611,51.3134079,
0.09250000119,50.41775131,
0.09416666627,50.48353958,
0.09583333135,50.9730835,
0.09749999642,50.60615921,
0.09916666895,51.52935028,
0.100833334,50.74691772,
0.1024999991,50.72386169,
0.1041666642,51.38090134,
0.1058333293,50.73394394,
0.1075000018,50.7784729,
0.1091666669,50.71273422,
0.1108333319,51.47730255,
0.112499997,50.11860657,
0.1141666621,50.92275238,
0.1158333346,50.79814911,
0.1174999997,50.99495697,
0.1191666648,50.42206192,
0.1208333299,50.76410675,
0.1224999949,50.39253998,
0.1241666749,50.46666718,
0.1258333325,50.19397354,
0.1274999976,50.46986008,
0.1291666627,51.37134552,
0.1308333278,51.11191559,
0.1325000077,50.9151268,
0.1341666728,50.58012009,
0.1358333379,51.1170311,
0.137500003,50.35653687,
0.1391666681,50.94048309,
0.1408333331,51.05631638,
0.1424999982,50.57426453,
0.1441666782,50.73650742,
0.1458333284,51.19365311,
0.1475000083,50.78808975,
0.1491666585,50.78285217,
0.1508333385,51.27828598,
0.1525000036,50.65859222,
0.1541666687,50.69412613,
0.1558333337,51.13418579,
0.1574999988,50.37410736,
0.1591666639,50.52993011,
0.1608333439,50.97601318,
0.162499994,50.88179398,
0.164166674,50.94233322,
0.1658333242,51.31794739,
0.1675000042,51.09099579,
0.1691666692,50.94855499,
0.1708333343,51.22206497,
0.1724999994,51.01025009,
0.1741666645,50.84795761,
0.1758333296,50.61832047,
0.1775000095,50.50659561,
0.1791666597,51.16410446,
0.1808333397,50.09915543,
0.1824999899,51.33152771,
0.1841666698,50.10060501,
0.1858333498,50.89441681,
0.1875,50.40214539,
0.18916668,50.96749878,
0.1908333302,50.66420364,
0.1925000101,51.01762772,
0.1941666752,51.00302887,
0.1958333403,51.08291626,
0.1975000054,51.04426193,
0.1991666704,50.53698349,
0.2008333355,51.18763351,
0.2025000155,49.94085312,
0.2041666657,50.46079254,
0.2058333457,51.53642273,
0.2074999958,50.72052002,
0.2091666758,51.03247833,
0.2108333409,50.97060394,
0.212500006,51.01621246,
0.214166671,50.77330399,
0.2158333361,50.5562706,
0.2175000012,50.09206772,
0.2191666812,50.65129089,
0.2208333313,51.13414001,
0.2225000113,51.25603867,
0.2241666615,51.03637314,
0.2258333415,51.44754028,
0.2275000066,51.24101639,
0.2291666716,51.4262886,
0.2308333367,51.01969147,
0.2325000018,50.67749023,
0.2341666669,51.2108345,
0.2358333468,50.84806061,
0.237499997,51.35853958,
0.239166677,50.561203,
0.2408333272,50.72739029,
0.2425000072,51.08988953,
0.2441666722,50.7563591,
0.2458333373,50.66317368,
0.2475000024,51.10423279,
0.2491666675,50.84885025,
0.2508333325,50.91012573,
0.2524999976,50.45882416,
0.2541666627,50.15266418,
0.2558333278,50.96870422,
0.2574999928,50.46964645,
0.2591666579,50.70531464,
0.2608333528,50.14812851,
0.2624999881,51.07178497,
0.264166683,50.55758667,
0.2658333182,50.10326004,
0.2675000131,50.93399429,
0.2691666484,50.78876114,
0.2708333433,50.4643631,
0.2725000083,51.40255356,
0.2741666734,50.78874207,
0.2758333385,50.3062973,
0.2775000036,50.72364426,
0.2791666687,50.283638,
0.2808333337,50.51319122,
0.2824999988,51.22189331,
0.2841666937,50.49158859,
0.285833329,51.16220474,
0.287499994,50.66347122,
0.2891666591,51.03384018,
0.290833354,51.20032883,
0.2925000191,50.7952919,
0.2941666543,50.38739014,
0.2958333194,50.43816376,
0.2975000143,50.49717712,
0.2991666794,50.59690094,
0.3008333445,50.70461273,
0.3024999797,51.43502045,
0.3041666746,51.15430832,
0.3058333397,50.07663345,
0.3075000048,50.3792305,
0.3091666996,50.22901535,
0.3108333349,50.99510193,
0.3125,51.92556763,
0.3141666651,51.2759285,
0.31583336,51.20433807,
0.317500025,50.10700226,
0.3191666603,50.32307816,
0.3208333254,51.09752655,
0.3225000203,50.17408371,
0.3241666853,50.7752533,
0.3258333504,51.02421951,
0.3274999857,50.27000046,
0.3291666806,51.04272842,
0.3308333457,50.53844833,
0.3325000107,50.56331635,
0.3341666758,50.1124115,
0.3358333409,51.23303223,
0.337500006,50.82483292,
0.339166671,50.20285034,
0.3408333361,50.57331848,
0.342500031,50.90551376,
0.3441666663,50.5678978,
0.3458333313,50.64845657,
0.3474999964,51.07517242,
0.3491666913,50.58509445,
0.3508333564,50.77521896,
0.3524999917,50.96723557,
0.3541666567,50.92998505,
0.3558333516,50.93544769,
0.3575000167,50.99038696,
0.3591666818,50.40194321,
0.360833317,50.54281998,
0.3625000119,51.23018265,
0.364166677,51.0281601,
0.3658333421,50.85384369,
0.3675000072,50.94681168,
0.3691666722,51.20770264,
0.3708333373,50.58663559,
0.3725000024,50.2637291,
0.3741666675,50.65947342,
0.3758333623,50.21478653,
0.3774999976,50.23638153,
0.3791666627,50.39339828,
0.3808333278,50.99175262,
0.3825000226,50.75986862,
0.3841666877,50.77565765,
0.385833323,50.28491592,
0.3874999881,50.11471176,
0.389166683,51.44062042,
0.390833348,50.43224335,
0.3925000131,50.12314606,
0.3941666484,50.87217712,
0.3958333433,50.24999237,
0.3975000083,50.30892181,
0.3991666734,50.67134094,
0.4008333385,50.80089951,
0.4025000036,50.91601944,
0.4041666687,50.48759842,
0.4058333337,50.33189011,
0.4074999988,50.00881577,
0.4091666937,51.36307144,
0.410833329,50.68908691,
0.412499994,51.08555222,
0.4141666591,50.44015121,
0.415833354,50.94342041,
0.4175000191,50.54060364,
0.4191666543,50.73394775,
0.4208333194,50.2158699,
0.4225000143,50.64879227,
0.4241666794,50.66382599,
0.4258333445,50.42865753,
0.4274999797,49.89812469,
0.4291666746,50.59231949,
0.4308333397,50.82157898,
0.4325000048,50.86604309,
0.4341666996,50.94096375,
0.4358333349,51.14730835,
0.4375,50.82728577,
0.4391666651,50.82917786,
0.44083336,50.80818939,
0.442500025,50.61152267,
0.4441666603,50.36713028,
0.4458333254,50.66462708,
0.4475000203,50.19935608,
0.4491666853,50.46242142,
0.4508333504,50.96097565,
0.4524999857,50.78871918,
0.4541666806,50.27897263,
0.4558333457,50.71268463,
0.4575000107,50.92718887,
0.4591666758,50.2065239,
0.4608333409,51.03059006,
0.462500006,49.94615555,
0.464166671,50.84844971,
0.4658333361,50.83566284,
0.467500031,50.39198303,
0.4691666663,50.17048264,
0.4708333313,50.59685898,
0.4724999964,50.26684189,
0.4741666913,51.34086609,
0.4758333564,50.60569763,
0.4774999917,50.0943718,
0.4791666567,50.76543427,
0.4808333516,50.23751831,
0.4825000167,49.89030457,
0.4841666818,50.92267609,
0.485833317,50.13503265,
0.4875000119,51.27827835,
0.489166677,50.77920532,
0.4908333421,50.9736557,
0.4925000072,50.62651825,
0.4941666722,50.85294724,
0.4958333373,50.27449799,
0.4975000024,50.24052048,
0.4991666675,49.7396698,
0.5008333325,50.30712509,
0.5024999976,50.64628601,
0.5041666627,50.60063171,
0.5058333278,50.3054657,
0.5074999928,50.9992485,
0.5091666579,50.95210266,
0.510833323,50.32052612,
0.5124999881,49.833004,
0.5141666532,50.90190506,
0.5158333182,50.78964233,
0.5175000429,50.08258057,
0.5191666484,51.17485809,
0.5208333135,50.41394806,
0.5224999785,51.24591064,
0.5241667032,51.07735443,
0.5258333683,51.04876328,
0.5274999738,50.36820984,
0.5291666389,50.38465881,
0.5308333635,49.92784882,
0.5325000286,50.46468353,
0.5341666341,50.70539856,
0.5358333588,50.55090714,
0.5375000238,50.865242,
0.5391666889,50.53903198,
0.540833354,50.24253464,
0.5424999595,50.83644485,
0.5441666842,50.29460144,
0.5458333492,50.44602966,
0.5475000143,50.73163223,
0.5491666794,49.97769928,
0.5508333445,50.23415375,
0.5525000095,50.83716202,
0.5541666746,50.48098373,
0.5558333993,50.35637283,
0.5575000048,50.4535675,
0.5591666698,50.50522995,
0.5608333349,50.90333557,
0.5625,50.59296799,
0.5641667247,50.92026901,
0.5658333302,50.21057892,
0.5674999952,50.54787827,
0.5691667199,50.57845688,
0.5708333254,50.73698044,
0.5725000501,51.01918411,
0.5741666555,50.35194778,
0.5758333206,51.16811371,
0.5775000453,50.96278,
0.5791666508,50.69710541,
0.5808333755,50.64592743,
0.5825000405,49.81191635,
0.584166646,50.39872742,
0.5858333707,50.6056633,
0.5874999762,51.61867523,
0.5891667008,50.15332794,
0.5908333659,50.74570847,
0.5924999714,50.27458191,
0.5941666961,50.3245163,
0.5958333611,50.73043442,
0.5975000262,50.37493134,
0.5991666913,50.55583954,
0.6008332968,50.57756424,
0.6025000215,50.07702637,
0.6041666865,50.96295929,
0.6058333516,50.96377182,
0.6075000167,49.98679733,
0.6091666818,50.28907394,
0.6108333468,50.25356674,
0.6125000119,50.64730072,
0.614166677,50.06136703,
0.6158333421,50.95533752,
0.6175000072,50.98046494,
0.6191666722,51.11859131,
0.6208333373,50.11340332,
0.622500062,49.77446747,
0.6241666675,51.25826645,
0.6258333325,50.82853317,
0.6274999976,50.69367599,
0.6291666627,51.21100998,
0.6308333874,50.59705353,
0.6324999928,50.43562317,
0.6341666579,50.14352798,
0.6358333826,50.4426918,
0.6374999881,50.2676239,
0.6391667128,49.74636078,
0.6408333182,50.59733582,
0.6424999833,50.52125168,
0.644166708,49.88821793,
0.6458333135,50.41323471,
0.6475000381,50.38126373,
0.6491667032,50.69709015,
0.6508333087,51.31850433,
0.6525000334,50.48851395,
0.6541666389,50.7221756,
0.6558333635,49.78439331,
0.6575000286,50.96642303,
0.6591666341,50.76633072,
0.6608333588,50.72613144,
0.6625000238,50.45125198,
0.6641666889,50.21324158,
0.665833354,50.46377182,
0.6674999595,50.94649887,
0.6691666842,50.28566742,
0.6708333492,51.35587692,
0.6725000143,50.40707016,
0.6741666794,51.20397186,
0.6758333445,50.42100525,
0.6775000095,50.76391602,
0.6791666746,51.06240845,
0.6808333993,50.03025055,
0.6825000048,50.83388901,
0.6841666698,49.43770218,
0.6858333349,50.74968719,
0.6875,50.60448074,
0.6891667247,51.3275032,
0.6908333302,50.83236694,
0.6924999952,50.99365997,
0.6941667199,50.45478821,
0.6958333254,51.15923691,
0.6975000501,49.83140564,
0.6991666555,50.63968658,
0.7008333206,50.33314514,
0.7025000453,50.48739243,
0.7041666508,50.33122635,
0.7058333755,50.63848495,
0.7075000405,50.89352036,
0.709166646,50.72311783,
0.7108333707,51.02641296,
0.7124999762,51.02303696,
0.7141667008,50.9268074,
0.7158333659,50.54512024,
0.7174999714,50.22439194,
0.7191666961,50.2291069,
0.7208333611,50.96099091,
0.7225000262,50.92538452,
0.7241666913,51.00008011,
0.7258332968,50.73833847,
0.7275000215,50.39739227,
0.7291666865,50.77397537,
0.7308333516,49.91312408,
0.7325000167,50.7737236,
0.7341666818,50.76391983,
0.7358333468,50.3040657,
0.7375000119,50.47339249,
0.739166677,50.66663361,
0.7408333421,50.6144371,
0.7425000072,50.80710983,
0.7441666722,51.11820984,
0.7458333373,50.65452957,
0.747500062,50.20771027,
0.7491666675,50.6271286,
0.7508333325,50.242939,
0.7524999976,50.83776855,
0.7541666627,50.08837128,
0.7558333874,49.69521713,
0.7574999928,50.59132385,
0.7591666579,50.3279953,
0.7608333826,50.50689316,
0.7624999881,50.6095047,
0.7641667128,50.00205231,
0.7658333182,50.97944641,
0.7674999833,50.4293251,
0.769166708,50.47774124,
0.7708333135,50.86159515,
0.7725000381,50.69266891,
0.7741667032,50.75855255,
0.7758333087,50.66056061,
0.7775000334,50.58584595,
0.7791666389,51.22964096,
0.7808333635,50.48521423,
0.7825000286,50.87295532,
0.7841666341,49.97639465,
0.7858333588,51.16470718,
0.7875000238,50.32167435,
0.7891666889,51.64299774,
0.790833354,50.22884369,
0.7924999595,50.12248993,
0.7941666842,50.09755325,
0.7958333492,50.43287659,
0.7975000143,50.75219727,
0.7991666794,50.69715881,
0.8008333445,50.72374344,
0.8025000095,51.2012291,
0.8041666746,50.10140228,
0.8058333993,49.93439102,
0.8075000048,49.58779907,
0.8091666698,50.24151993,
0.8108333349,50.83587265,
0.8125,50.30103302,
0.8141667247,51.0568161,
0.8158333302,50.67277145,
0.8174999952,50.01480484,
0.8191667199,49.89607239,
0.8208333254,50.18693924,
0.8225000501,50.81202316,
0.8241666555,50.50673294,
0.8258333206,50.66021347,
0.8275000453,50.37601852,
0.8291666508,50.67531586,
0.8308333755,50.86078644,
0.8325000405,50.6443367,
0.834166646,50.41516876,
0.8358333707,50.78049469,
0.8374999762,50.8436203,
0.8391667008,50.76485443,
0.8408333659,50.34985733,
0.8424999714,50.49858093,
0.8441666961,50.89706421,
0.8458333611,50.15768433,
0.8475000262,50.58137512,
0.8491666913,50.04181671,
0.8508332968,50.77474213,
0.8525000215,50.53675842,
0.8541666865,50.15658951,
0.8558333516,50.46885681,
0.8575000167,49.55791855,
0.8591666818,49.99065781,
0.8608333468,51.33746338,
0.8625000119,50.3868866,
0.864166677,50.55475235,
0.8658333421,50.79218674,
0.8675000072,50.16545868,
0.8691666722,50.42927933,
0.8708333373,50.32053757,
0.872500062,50.94626236,
0.8741666675,50.70840836,
0.8758333325,50.18352127,
0.8774999976,50.90110779,
0.8791666627,51.02179718,
0.8808333874,50.08669281,
0.8824999928,50.82260895,
0.8841666579,50.02138138,
0.8858333826,50.21411133,
0.8874999881,50.63790131,
0.8891667128,50.15596771,
0.8908333182,50.45182037,
0.8924999833,50.60521317,
0.894166708,50.81988907,
0.8958333135,50.9248085,
0.8975000381,50.49350357,
0.8991667032,50.44939041,
0.9008333087,50.60540771,
0.9025000334,50.87802887,
0.9041666389,50.17367554,
0.9058333635,50.64502716,
0.9075000286,50.42510986,
0.9091666341,50.73222733,
0.9108333588,50.55134964,
0.9125000238,50.3077507,
0.9141666889,50.7713623,
0.915833354,50.0284462,
0.9174999595,50.77045441,
0.9191666842,50.45321274,
0.9208333492,50.75968552,
0.9225000143,50.60578918,
0.9241666794,50.35092926,
0.9258333445,49.67126465,
0.9275000095,50.97748566,
0.9291666746,50.47551346,
0.9308333993,50.66307449,
0.9325000048,50.68480301,
0.9341666698,50.69797134,
0.9358333349,50.53750229,
0.9375,49.90462112,
0.9391667247,50.95020676,
0.9408333302,50.46392441,
0.9424999952,50.28516006,
0.9441667199,50.83301544,
0.9458333254,50.79847717,
0.9475000501,50.56216049,
0.9491666555,50.15218353,
0.9508333206,50.23162842,
0.9525000453,50.47892761,
0.9541666508,50.72697067,
0.9558333755,50.99474335,
0.9575000405,51.2926712,
0.959166646,50.56929779,
0.9608333707,51.20479965,
0.9624999762,50.61949158,
0.9641667008,50.4421463,
0.9658333659,50.87030029,
0.9674999714,50.69165421,
0.9691666961,50.58050537,
0.9708333611,50.55152893,
0.9725000262,50.50683594,
0.9741666913,50.52880859,
0.9758332968,51.188591,
0.9775000215,51.22145081,
0.9791666865,50.23278809,
0.9808333516,50.17484283,
0.9825000167,50.36237335,
0.9841666818,50.45890427,
0.9858333468,50.8706131,
0.9875000119,50.44287109,
0.989166677,50.57066727,
0.9908333421,50.60466385,
0.9925000072,50.54175568,
0.9941666722,51.03675461,
0.9958333373,50.12456131,
0.997500062,50.55258942,
0.9991666675,50.76499939,
1.000833273,50.17173767,
1.002500057,50.63471222,
1.004166722,50.31925201,
1.005833387,50.70236588,
1.007500052,50.62322617,
1.009166598,50.51186752,
1.010833383,50.58141327,
1.012500048,50.67427444,
1.014166713,50.27650452,
1.015833378,50.28858185,
1.017500043,49.72187424,
1.019166708,50.22621918,
1.020833373,51.12282944,
1.022500038,49.97878265,
1.024166703,50.68624878,
1.025833368,51.07429504,
1.027500033,50.83794785,
1.029166698,50.5605545,
1.030833364,50.03364563,
1.032500029,50.64691162,
1.034166694,50.55329514,
1.035833359,50.66688919,
1.037500024,50.54810333,
1.039166689,50.85303497,
1.040833354,51.06932068,
1.042500019,50.57149124,
1.044166684,50.41678238,
1.045833349,50.43931198,
1.047500014,51.06560135,
1.049166679,50.46723557,
1.050833344,50.49700165,
1.05250001,49.99705124,
1.054166675,50.72380829,
1.05583334,50.2590065,
1.057500005,50.32957077,
1.05916667,50.82318878,
1.060833335,51.09220123,
1.0625,50.27083969,
1.064166665,50.67287064,
1.06583333,50.78845596,
1.067499995,49.99091721,
1.06916666,50.41281509,
1.070833325,50.06440735,
1.07249999,50.4948082,
1.074166775,50.24445343,
1.07583344,50.80231094,
1.077499986,50.77159119,
1.079166651,50.95274353,
1.080833316,50.30475998,
1.0825001,50.04275894,
1.084166765,50.02929688,
1.085833311,46.54593658,
1.087499976,45.21383286,
1.089166641,43.20725632,
1.090833426,46.07215881,
1.092500091,48.69834518,
1.094166636,44.48934174,
1.095833302,49.15407944,
1.097499967,47.45455551,
1.099166751,49.57853317,
1.100833416,48.12492371,
1.102500081,49.02664566,
1.104166627,46.98852921,
1.105833292,48.2377739,
1.107500076,46.3718338,
1.109166741,45.98803711,
1.110833406,47.91310501,
1.112499952,43.64228058,
1.114166617,50.19852448,
1.115833402,48.08295822,
1.117500067,48.63286209,
1.119166732,48.27439117,
1.120833278,48.12956619,
1.122499943,48.26710892,
1.124166727,48.97804642,
1.125833392,48.78590393,
1.127500057,48.28403473,
1.129166722,48.36933517,
1.130833268,48.18753433,
1.132500052,48.44407654,
1.134166718,47.84532928,
1.135833383,48.39667892,
1.137500048,48.26244736,
1.139166594,47.43433762,
1.140833378,47.52718353,
1.142500043,47.99596024,
1.144166708,47.16704941,
1.145833373,47.88393784,
1.147499919,47.67534256,
1.149166703,48.00760651,
1.150833368,47.31885529,
1.152500033,47.23006058,
1.154166698,47.58308411,
1.155833364,48.41804504,
1.157500029,47.13408661,
1.159166694,47.20663452,
1.160833359,47.6170845,
1.162500024,47.59828568,
1.164166689,47.11165619,
1.165833354,47.0266037,
1.167500019,46.59212494,
1.169166684,46.59204102,
1.170833349,47.30524826,
1.172500014,46.59557343,
1.174166799,46.95089722,
1.175833344,46.93132401,
1.17750001,46.949646,
1.179166675,46.6709404,
1.18083334,46.5046463,
1.182500124,46.19142151,
1.18416667,47.06508636,
1.185833335,46.61406708,
1.1875,47.05930328,
1.189166665,45.83375168,
1.190833449,46.3555603,
1.192499995,46.56473541,
1.19416666,46.58501434,
1.195833325,46.39049911,
1.19749999,46.30731964,
1.199166775,46.45795822,
1.20083344,45.98348618,
1.202499986,46.1811409,
1.204166651,46.03659439,
1.205833316,45.70187759,
1.2075001,45.9720459,
1.209166765,46.46891785,
1.210833311,45.87586212,
1.212499976,46.43435669,
1.214166641,45.13589478,
1.215833426,46.19363403,
1.217500091,45.46200943,
1.219166636,45.76005554,
1.220833302,45.66772461,
1.222499967,46.08989716,
1.224166751,45.88699722,
1.225833416,45.56602478,
1.227500081,45.90255356,
1.229166627,45.63396454,
1.230833292,45.35241699,
1.232500076,45.80143356,
1.234166741,45.83429718,
1.235833406,45.60124588,
1.237499952,45.37280273,
1.239166617,45.76400375,
1.240833402,45.12486649,
1.242500067,45.27629852,
1.244166732,45.78784943,
1.245833278,44.91752243,
1.247499943,44.85655212,
1.249166727,45.43550873,
1.250833392,44.71539688,
1.252500057,45.15055847,
1.254166722,45.54853058,
1.255833268,45.37334824,
1.257500052,45.78941727,
1.259166718,45.28830719,
1.260833383,45.20255661,
1.262500048,44.60689545,
1.264166594,44.58406448,
1.265833378,45.35826111,
1.267500043,45.03061295,
1.269166708,45.31536865,
1.270833373,44.50615311,
1.272499919,44.73326492,
1.274166703,45.40579224,
1.275833368,45.1762886,
1.277500033,44.79896927,
1.279166698,44.93069458,
1.280833364,44.7962532,
1.282500029,44.42988968,
1.284166694,45.00339508,
1.285833359,45.16180038,
1.287500024,44.75627518,
1.289166689,44.78704071,
1.290833354,44.98471069,
1.292500019,44.30781937,
1.294166684,44.38152313,
1.295833349,44.1476326,
1.297500014,44.62977982,
1.299166799,44.32175446,
1.300833344,44.4504509,
1.30250001,44.44876862,
1.304166675,44.89299011,
1.30583334,45.11264801,
1.307500124,44.47771454,
1.30916667,44.33684921,
1.310833335,44.58156204,
1.3125,44.19447708,
1.314166665,44.84141541,
1.315833449,45.08116913,
1.317499995,44.39801407,
1.31916666,44.10513306,
1.320833325,44.64248657,
1.32249999,43.9901123,
1.324166775,44.40380096,
1.32583344,44.20423508,
1.327499986,44.0009346,
1.329166651,44.38594818,
1.330833316,43.64564514,
1.3325001,43.93782043,
1.334166765,44.06680298,
1.335833311,44.16202927,
1.337499976,44.28340149,
1.339166641,44.26702499,
1.340833426,44.31523132,
1.342500091,45.05453491,
1.344166636,43.48155212,
1.345833302,43.65992737,
1.347499967,43.64390945,
1.349166751,44.45389938,
1.350833416,43.90786743,
1.352500081,43.98231125,
1.354166627,43.78504944,
1.355833292,43.99935913,
1.357500076,43.70320129,
1.359166741,44.37832642,
1.360833406,43.33554459,
1.362499952,43.65130615,
1.364166617,43.56147766,
1.365833402,44.27321243,
1.367500067,44.25648117,
1.369166732,43.26144791,
1.370833278,43.6110611,
1.372499943,43.75007248,
1.374166727,43.60649872,
1.375833392,43.327034,
1.377500057,43.41818237,
1.379166722,43.68697357,
1.380833268,43.61299133,
1.382500052,43.67002487,
1.384166718,43.74152756,
1.385833383,43.70004654,
1.387500048,43.82304001,
1.389166594,44.18476486,
1.390833378,43.53416443,
1.392500043,43.08491135,
1.394166708,43.29643631,
1.395833373,43.91048813,
1.397499919,43.57719421,
1.399166703,43.32925797,
1.400833368,43.15925217,
1.402500033,43.3605957,
1.404166698,43.6954155,
1.405833364,43.25273895,
1.407500029,43.35782623,
1.409166694,43.27680969,
1.410833359,43.09248734,
1.412500024,43.15595245,
1.414166689,43.16302109,
1.415833354,43.28933334,
1.417500019,43.46931076,
1.419166684,42.6193161,
1.420833349,42.74523926,
1.422500014,43.30932999,
1.424166799,43.22199249,
1.425833344,42.89355087,
1.42750001,42.94934845,
1.429166675,43.54710388,
1.43083334,43.0030899,
1.432500124,43.19287109,
1.43416667,43.16492081,
1.435833335,42.7287674,
1.4375,42.93146515,
1.439166665,42.98853683,
1.440833449,42.17809677,
1.442499995,43.3686409,
1.44416666,43.34448242,
1.445833325,43.47012711,
1.44749999,42.75888062,
1.449166775,43.21897888,
1.45083344,43.12048721,
1.452499986,42.90382385,
1.454166651,42.75792694,
1.455833316,42.82696533,
1.4575001,42.97413635,
1.459166765,43.56216049,
1.460833311,42.81979752,
1.462499976,42.02164841,
1.464166641,43.31523514,
1.465833426,43.63512039,
1.467500091,42.47325516,
1.469166636,43.32733154,
1.470833302,42.7306366,
1.472499967,42.72790146,
1.474166751,42.61485672,
1.475833416,42.44480896,
1.477500081,42.78142548,
1.479166627,42.16110992,
1.480833292,42.94460297,
1.482500076,42.79018021,
1.484166741,42.45272064,
1.485833406,41.98275757,
1.487499952,42.68727493,
1.489166617,43.07201004,
1.490833402,42.31381607,
1.492500067,42.69532013,
1.494166732,42.18792725,
1.495833278,42.37082672,
1.497499943,42.82225037,
1.499166727,42.98364639,
1.500833392,42.14015579,
1.502500057,41.91857147,
1.504166722,42.49519348,
1.505833268,42.54404449,
1.507500052,42.5764122,
1.509166718,42.44939423,
1.510833383,42.66922379,
1.512500048,42.3747139,
1.514166594,42.49148941,
1.515833378,42.27492523,
1.517500043,42.1026535,
1.519166708,42.82029724,
1.520833373,42.07672882,
1.522499919,42.49645233,
1.524166703,42.30951309,
1.525833368,42.26674652,
1.527500033,42.90922546,
1.529166698,42.82832718,
1.530833364,42.46456909,
1.532500029,42.14915085,
1.534166694,42.57751083,
1.535833359,42.50144196,
1.537500024,42.56122971,
1.539166689,42.35382843,
1.540833354,41.90473938,
1.542500019,42.46957779,
1.544166684,41.77028275,
1.545833349,41.95857239,
1.547500014,42.16710663,
1.549166799,42.6908493,
1.550833344,42.28738785,
1.55250001,42.65990829,
1.554166675,42.61519623,
1.55583334,42.15025711,
1.557500124,42.53663254,
1.55916667,42.05125046,
1.560833335,42.14466858,
1.5625,41.93725586,
1.564166665,41.84766388,
1.565833449,42.28913116,
1.567499995,42.84113693,
1.56916666,42.32261276,
1.570833325,41.9797554,
1.57249999,41.97486115,
1.574166775,41.85697937,
1.57583344,42.21052933,
1.577499986,42.4913559,
1.579166651,41.71126556,
1.580833316,42.20036316,
1.5825001,42.33733749,
1.584166765,42.73641586,
1.585833311,42.49357986,
1.587499976,41.7749939,
1.589166641,42.50157166,
1.590833426,41.69377899,
1.592500091,42.29038239,
1.594166636,42.27503204,
1.595833302,42.24079132,
1.597499967,41.48299408,
1.599166751,41.93011856,
1.600833416,41.18230438,
1.602500081,42.59651566,
1.604166627,41.69913864,
1.605833292,41.65632629,
1.607500076,42.01194,
1.609166741,41.52867126,
1.610833406,41.70234299,
1.612499952,41.72393799,
1.614166617,41.84958649,
1.615833402,41.36181641,
1.617500067,42.41706467,
1.619166732,41.6802597,
1.620833278,42.20492554,
1.622499943,41.64121628,
1.624166727,41.37403107,
1.625833392,42.17906189,
1.627500057,41.47026062,
1.629166722,42.07560349,
1.630833268,41.95930481,
1.632500052,41.21210861,
1.634166718,41.82236862,
1.635833383,41.77970123,
1.637500048,41.76298141,
1.639166594,42.14507294,
1.640833378,41.97604752,
1.642500043,41.98596954,
1.644166708,42.10326767,
1.645833373,41.84152603,
1.647499919,42.08232498,
1.649166703,41.58444977,
1.650833368,41.87000656,
1.652500033,41.32664108,
1.654166698,41.54785919,
1.655833364,41.58470535,
1.657500029,42.05334091,
1.659166694,41.34737396,
1.660833359,41.58601379,
1.662500024,41.18273926,
1.664166689,41.52208328,
1.665833354,41.56758499,
1.667500019,40.97873688,
1.669166684,41.73194504,
1.670833349,41.58154297,
1.672500014,41.35260773,
1.674166799,41.72774124,
1.675833344,41.51512909,
1.67750001,41.50233841,
1.679166675,41.80844879,
1.68083334,41.71752167,
1.682500124,41.30701065,
1.68416667,41.05032349,
1.685833335,41.48436737,
1.6875,41.53865814,
1.689166665,41.45875168,
1.690833449,41.54670334,
1.692499995,41.61334229,
1.69416666,41.6723175,
1.695833325,41.12667465,
1.69749999,41.33194351,
1.699166775,42.17909622,
1.70083344,41.02871323,
1.702499986,41.40172577,
1.704166651,41.10565948,
1.705833316,41.80033493,
1.7075001,41.19536591,
1.709166765,41.2054863,
1.710833311,41.73971558,
1.712499976,41.73902512,
1.714166641,40.41754532,
1.715833426,41.57202148,
1.717500091,41.06275558,
1.719166636,41.18776321,
1.720833302,41.43604279,
1.722499967,41.19221497,
1.724166751,41.30247879,
1.725833416,41.78184128,
1.727500081,41.28030777,
1.729166627,41.16509247,
1.730833292,40.430233,
1.732500076,41.05664063,
1.734166741,41.52480698,
1.735833406,41.3057518,
1.737499952,41.48777771,
1.739166617,41.17828369,
1.740833402,41.44937897,
1.742500067,40.83436966,
1.744166732,41.01762772,
1.745833278,40.66928482,
1.747499943,41.58965683,
1.749166727,41.6747818,
1.750833392,40.77725983,
1.752500057,41.63274384,
1.754166722,41.0207901,
1.755833268,41.41698456,
1.757500052,41.46105576,
1.759166718,41.431427,
1.760833383,40.78258133,
1.762500048,41.43669128,
1.764166594,41.44527054,
1.765833378,40.84283066,
1.767500043,41.37621307,
1.769166708,41.2482605,
1.770833373,40.94246292,
1.772499919,41.04308701,
1.774166703,41.55867386,
1.775833368,41.17534637,
1.777500033,40.58876038,
1.779166698,40.82049561,
1.780833364,40.91463852,
1.782500029,41.04444122,
1.784166694,41.00170135,
1.785833359,40.94742966,
1.787500024,40.76062775,
1.789166689,41.17664337,
1.790833354,40.68901062,
1.792500019,41.09024048,
1.794166684,41.00283813,
1.795833349,41.09396362,
1.797500014,40.86245346,
1.799166799,40.5054512,
1.800833344,41.13312149,
1.80250001,41.06509018,
1.804166675,41.09564209,
1.80583334,41.37976456,
1.807500124,41.0602684,
1.80916667,41.02261353,
1.810833335,41.0005722,
1.8125,41.02295685,
1.814166665,41.26210785,
1.815833449,41.52758026,
1.817499995,41.12490463,
1.81916666,41.34511566,
1.820833325,40.60303879,
1.82249999,40.75317383,
1.824166775,41.1570549,
1.82583344,40.86891937,
1.827499986,40.67635345,
1.829166651,40.73659515,
1.830833316,40.80844879,
1.8325001,41.50380707,
1.834166765,41.15745926,
1.835833311,41.03383636,
1.837499976,40.71948624,
1.839166641,40.6809082,
1.840833426,40.75852585,
1.842500091,39.96742249,
1.844166636,40.7886467,
1.845833302,40.66372299,
1.847499967,41.25208664,
1.849166751,40.75453186,
1.850833416,40.80094528,
1.852500081,41.24265289,
1.854166627,41.33291626,
1.855833292,40.93325043,
1.857500076,41.02240372,
1.859166741,41.15060425,
1.860833406,41.04118347,
1.862499952,40.79194641,
1.864166617,40.76048279,
1.865833402,41.23136139,
1.867500067,40.7865448,
1.869166732,40.52725601,
1.870833278,40.64593124,
1.872499943,41.00187302,
1.874166727,40.87177277,
1.875833392,40.8641777,
1.877500057,40.84516907,
1.879166722,41.05385971,
1.880833268,40.99360657,
1.882500052,41.20214462,
1.884166718,41.09524155,
1.885833383,41.0425415,
1.887500048,41.11306381,
1.889166594,40.33206558,
1.890833378,40.67416382,
1.892500043,40.66487122,
1.894166708,40.7870369,
1.895833373,40.60113525,
1.897499919,40.97638702,
1.899166703,40.31681442,
1.900833368,40.77966309,
1.902500033,40.24016571,
1.904166698,40.89991379,
1.905833364,40.84030533,
1.907500029,40.633255,
1.909166694,40.11058426,
1.910833359,40.53451157,
1.912500024,40.51285172,
1.914166689,40.26083755,
1.915833354,40.2553978,
1.917500019,41.1758461,
1.919166684,40.96030807,
1.920833349,40.48866272,
1.922500014,40.55476379,
1.924166799,40.88510513,
1.925833344,41.06557083,
1.92750001,40.2298851,
1.929166675,41.0809021,
1.93083334,40.13806915,
1.932500124,40.04885864,
1.93416667,40.11597061,
1.935833335,40.25945282,
1.9375,40.70516586,
1.939166665,41.00292969,
1.940833449,40.82355881,
1.942499995,40.33893967,
1.94416666,40.5099411,
1.945833325,40.76058578,
1.94749999,40.4565773,
1.949166775,40.31866074,
1.95083344,40.15232086,
1.952499986,40.44267654,
1.954166651,40.43857956,
1.955833316,40.03740311,
1.9575001,40.37754822,
1.959166765,40.0873909,
1.960833311,40.51848602,
1.962499976,40.43986511,
1.964166641,40.03374863,
1.965833426,40.35646057,
1.967500091,40.52904892,
1.969166636,40.0560112,
1.970833302,40.370224,
1.972499967,40.98239899,
1.974166751,40.42744446,
1.975833416,40.66435623,
1.977500081,40.66676712,
1.979166627,40.27151489,
1.980833292,40.34441376,
1.982500076,40.33873749,
1.984166741,40.22196198,
1.985833406,39.81319427,
1.987499952,40.73342514,
1.989166617,40.23358917,
1.990833402,41.04992676,
1.992500067,40.68228531,
1.994166732,40.38574219,
1.995833278,40.44169617,
1.997499943,40.09877014,
1.999166727,40.221241,
2.000833273,40.31022263,
2.002500057,40.66851425,
2.004166603,40.25247574,
2.005833387,40.18024063,
2.007500172,40.54053879,
2.009166718,40.10424042,
2.010833263,40.08748245,
2.012500048,40.50818253,
2.014166594,40.6406517,
2.015833378,40.58526611,
2.017500162,40.63492584,
2.019166708,41.02494431,
2.020833254,40.4627037,
2.022500038,40.09911728,
2.024166822,41.00791168,
2.025833368,40.15707016,
2.027499914,40.52756119,
2.029166698,40.793396,
2.030833244,39.89231491,
2.032500029,41.0578804,
2.034166813,40.3487587,
2.035833359,40.30945587,
2.037499905,40.25340271,
2.039166689,40.45083237,
2.040833473,40.18317413,
2.042500019,40.53815842,
2.044166803,40.24115372,
2.045833349,40.19158936,
2.047499895,40.22381973,
2.049166679,39.6341629,
2.050833464,40.27556992,
2.05250001,40.37533188,
2.054166555,39.97105789,
2.05583334,40.55363083,
2.057500124,40.88306046,
2.05916667,40.02013397,
2.060833454,40.27758789,
2.0625,40.56085968,
2.064166546,40.27550888,
2.06583333,39.77965927,
2.067500114,40.00190735,
2.06916666,40.42823029,
2.070833445,40.14698029,
2.07249999,40.51661682,
2.074166775,39.73080063,
2.075833321,39.89743423,
2.077500105,39.62776947,
2.079166651,39.87590027,
2.080833197,39.6081543,
2.082499981,40.33087158,
2.084166765,40.17041397,
2.085833311,40.08772659,
2.087500095,40.71013641,
2.089166641,40.64165497,
2.090833426,40.57936859,
2.092499971,39.77645874,
2.094166756,40.08086014,
2.095833302,39.54219818,
2.097500086,40.12081909,
2.099166632,39.82537079,
2.100833416,39.96180725,
2.102499962,40.51347733,
2.104166746,40.19769669,
2.105833292,39.81354904,
2.107500076,40.49041367,
2.109166622,40.3993187,
2.110833406,40.43933487,
2.112499952,39.65719604,
2.114166737,40.62676239,
2.115833521,39.89788055,
2.117500067,40.30771255,
2.119166613,39.92366028,
2.120833397,39.80733871,
2.122499943,40.00400543,
2.124166727,40.15499496,
2.125833273,40.11576462,
2.127500057,39.82471466,
2.129166603,40.28300858,
2.130833387,39.83273315,
2.132500172,40.56256104,
2.134166718,40.17820358,
2.135833502,40.74082947,
2.137500048,40.72867203,
2.139166832,40.11795044,
2.140833378,40.21842194,
2.142500162,40.68034744,
2.144166708,40.19599152,
2.145833254,40.0248909,
2.147500038,39.70711899,
2.149166584,39.87141037,
2.150833368,39.95648193,
2.152500153,40.23597717,
2.154166698,40.5154953,
2.155833483,40.10001755,
2.157500029,40.13866043,
2.159166813,39.7983284,
2.160833597,40.43123627,
2.162499905,39.83058929,
2.164166689,40.13697433,
2.165833235,40.52428436,
2.167500019,40.38554382,
2.169166803,40.11333466,
2.170833349,40.19141769,
2.172500134,40.24509811,
2.174166679,39.76685715,
2.175833464,39.94803619,
2.177500248,40.09418488,
2.179166555,39.88372421,
2.18083334,39.77655029,
2.182499886,40.20109558,
2.18416667,39.57702255,
2.185833454,39.66967392,
2.1875,39.75277328,
2.189166784,39.65384293,
2.19083333,40.18297958,
2.192500114,40.06430054,
2.194166899,39.91958237,
2.195833445,39.62900543,
2.19749999,40.35347366,
2.199166536,39.86486816,
2.200833321,40.04506302,
2.202500105,39.92320633,
2.204166651,40.22791672,
2.205833435,39.57514954,
2.207499981,40.54133224,
2.209166765,40.06155777,
2.210833549,39.98529816,
2.212500095,39.86516953,
2.21416688,40.21084595,
2.215833187,39.96759796,
2.217499971,40.10074234,
2.219166756,39.69397354,
2.220833302,39.2545166,
2.222500086,39.25601578,
2.224166632,40.39862442,
2.225833416,40.39703751,
2.2275002,40.07466888,
2.229166746,39.42608261,
2.23083353,40.26715851,
2.232499838,39.95949173,
2.234166622,40.25757217,
2.235833406,39.74128723,
2.237499952,39.99766159,
2.239166737,39.90867996,
2.240833282,39.76701355,
2.242500067,39.95695114,
2.244166851,39.90597916,
2.245833397,39.97337341,
2.247500181,40.56350327,
2.249166727,39.94721222,
2.250833273,40.34151459,
2.252500057,39.44057465,
2.254166603,39.56648636,
2.255833387,40.47941208,
2.257499933,39.79398346,
2.259166718,39.85987473,
2.260833502,40.00944901,
2.262500048,39.58661652,
2.264166832,39.64386368,
2.265833378,40.18115234,
2.267500162,40.52584839,
2.269166708,39.55775452,
2.270833254,39.94569778,
2.272500038,39.70975494,
2.274166584,39.59048462,
2.275833368,39.80835724,
2.277500153,39.9960556,
2.279166698,39.98258591,
2.280833483,39.41513062,
2.282500029,40.14198685,
2.284166813,39.92900848,
2.285833597,39.88976669,
2.287499905,39.293396,
2.289166689,39.83486176,
2.290833235,39.20359802,
2.292500019,39.88804626,
2.294166803,38.97657394,
2.295833349,39.32197189,
2.297500134,39.98515701,
2.299166679,39.80995941,
2.300833464,39.70312881,
2.302500248,39.79995346,
2.304166555,39.25536346,
2.30583334,40.48068619,
2.307499886,39.67801666,
2.30916667,39.92975235,
2.310833454,39.91987991,
2.3125,39.15669632,
2.314166784,39.47906113,
2.31583333,40.07910919,
2.317500114,39.92212677,
2.319166899,39.68152237,
2.320833445,39.30770874,
2.32249999,39.56797028,
2.324166536,39.27665329,
2.325833321,39.38853836,
2.327500105,39.39484024,
2.329166651,39.87436676,
2.330833435,39.77934647,
2.332499981,40.05418396,
2.334166765,39.30359268,
2.335833549,39.32273483,
2.337500095,39.51541519,
2.33916688,39.66496277,
2.340833187,40.18678665,
2.342499971,39.41132736,
2.344166756,40.3182373,
2.345833302,39.19730759,
2.347500086,39.61730194,
2.349166632,40.28668976,
2.350833416,39.9769249,
2.3525002,39.87378311,
2.354166746,39.85324097,
2.35583353,39.29430389,
2.357499838,39.32603836,
2.359166622,39.57766724,
2.360833406,39.54330063,
2.362499952,39.8120842,
2.364166737,39.82169724,
2.365833282,39.89797592,
2.367500067,39.3265686,
2.369166851,39.32786942,
2.370833397,40.14007568,
2.372500181,39.74447632,
2.374166727,40.33368683,
2.375833273,39.7005043,
2.377500057,39.83782196,
2.379166603,39.1987114,
2.380833387,39.14143372,
2.382499933,39.73085785,
2.384166718,39.30727768,
2.385833502,38.99891281,
2.387500048,39.58089447,
2.389166832,39.9300766,
2.390833378,39.64744949,
2.392500162,39.258564,
2.394166708,40.27389526,
2.395833254,39.47611618,
2.397500038,39.44252014,
2.399166584,40.0260582,
2.400833368,39.5851326,
2.402500153,40.3705368,
2.404166698,39.81131744,
2.405833483,38.99806213,
2.407500029,39.21854019,
2.409166813,39.36470413,
2.410833597,39.59503937,
2.412499905,39.6568222,
2.414166689,39.70505905,
2.415833235,39.68600845,
2.417500019,38.95182037,
2.419166803,40.07320404,
2.420833349,39.87722778,
2.422500134,39.15306854,
2.424166679,39.80202484,
2.425833464,39.91652298,
2.427500248,39.83016205,
2.429166555,39.51062393,
2.43083334,40,
2.432499886,39.1366539,
2.43416667,39.5831604,
2.435833454,39.8449173,
2.4375,39.27133942,
2.439166784,40.05042648,
2.44083333,39.53248596,
2.442500114,39.25875092,
2.444166899,39.38022232,
2.445833445,39.72309113,
2.44749999,39.59143448,
2.449166536,39.60669327,
2.450833321,39.66455841,
2.452500105,39.4600029,
2.454166651,39.36013031,
2.455833435,39.58455276,
2.457499981,39.19808578,
2.459166765,39.21764374,
2.460833549,39.6906662,
2.462500095,39.3936348,
2.46416688,39.17825699,
2.465833187,39.63808441,
2.467499971,39.52884293,
2.469166756,39.31987381,
2.470833302,39.05425262,
2.472500086,39.65750885,
2.474166632,39.78789139,
2.475833416,39.70085907,
2.4775002,39.32715988,
2.479166746,39.39315796,
2.48083353,39.90862274,
2.482499838,40.23019409,
2.484166622,39.28348541,
2.485833406,39.68646622,
2.487499952,39.45618439,
2.489166737,39.38394165,
2.490833282,39.76499176,
2.492500067,38.82521439,
2.494166851,39.1554985,
2.495833397,39.40326691,
2.497500181,39.69620514,
2.499166727,38.99943161,
2.500833273,39.31482697,
2.502500057,38.86301422,
2.504166603,39.47819901,
2.505833387,39.45890045,
2.507499933,39.28885269,
2.509166718,39.62529755,
2.510833502,39.22115326,
2.512500048,39.61471176,
2.514166832,38.94683456,
2.515833378,39.24359512,
2.517500162,39.33848953,
2.519166708,39.6267662,
2.520833254,39.11356354,
2.522500038,39.36745453,
2.524166584,39.30898285,
2.525833368,39.00325012,
2.527500153,39.77918243,
2.529166698,38.91857147,
2.530833483,39.60326767,
2.532500029,39.27762604,
2.534166813,38.71709061,
2.535833597,39.74426651,
2.537499905,39.5246315,
2.539166689,39.10995483,
2.540833235,38.86751938,
2.542500019,39.5572319,
2.544166803,39.313797,
2.545833349,39.02090836,
2.547500134,39.50486374,
2.549166679,39.06602859,
2.550833464,39.15085983,
2.552500248,38.94031143,
2.554166555,39.68425369,
2.55583334,39.59464645,
2.557499886,39.50350189,
2.55916667,39.14385605,
2.560833454,39.16433716,
2.5625,39.49918365,
2.564166784,38.54602051,
2.56583333,39.58884048,
2.567500114,39.02894974,
2.569166899,39.74666977,
2.570833445,38.8876152,
2.57249999,39.20191193,
2.574166536,39.57544708,
2.575833321,39.57886124,
2.577500105,39.44630432,
2.579166651,39.95880127,
2.580833435,39.28064346,
2.582499981,39.54425049,
2.584166765,38.8712883,
2.585833549,39.8092308,
2.587500095,39.64804459,
2.58916688,39.23248291,
2.590833187,39.39876938,
2.592499971,39.5241394,
2.594166756,39.51732254,
2.595833302,39.30043793,
2.597500086,39.48707962,
2.599166632,39.15174866,
2.600833416,38.88591003,
2.6025002,39.41511536,
2.604166746,39.59542847,
2.60583353,39.47283936,
2.607499838,39.13660049,
2.609166622,38.92860031,
2.610833406,39.78817368,
2.612499952,38.80701065,
2.614166737,39.43947983,
2.615833282,38.98278427,
2.617500067,39.33874893,
2.619166851,39.44436646,
2.620833397,39.60558701,
2.622500181,39.52458191,
2.624166727,38.82939911,
2.625833273,39.3229866,
2.627500057,39.06287384,
2.629166603,39.29624939,
2.630833387,39.15765381,
2.632499933,38.41664886,
2.634166718,39.82933044,
2.635833502,39.5741539,
2.637500048,39.10764313,
2.639166832,39.73717117,
2.640833378,39.05273819,
2.642500162,39.27008057,
2.644166708,38.91116714,
2.645833254,39.74334335,
2.647500038,39.20515442,
2.649166584,39.52298355,
2.650833368,39.45798111,
2.652500153,39.33044052,
2.654166698,39.0963974,
2.655833483,39.55574036,
2.657500029,39.4864006,
2.659166813,39.19186401,
2.660833597,39.63130951,
2.662499905,39.11894989,
2.664166689,39.33849335,
2.665833235,39.48225784,
2.667500019,39.21118927,
2.669166803,39.87099075,
2.670833349,39.59695435,
2.672500134,38.79738998,
2.674166679,39.93019867,
2.675833464,38.82414627,
2.677500248,39.05311584,
2.679166555,39.37185287,
2.68083334,39.48992538,
2.682499886,39.53586197,
2.68416667,39.28738785,
2.685833454,39.18564224,
2.6875,39.54878235,
2.689166784,39.25921249,
2.69083333,39.45696259,
2.692500114,39.01517105,
2.694166899,39.02180862,
2.695833445,38.98381805,
2.69749999,39.07991409,
2.699166536,39.30500793,
2.700833321,39.43691254,
2.702500105,40.02525711,
2.704166651,39.33889389,
2.705833435,38.74897766,
2.707499981,39.10770035,
2.709166765,39.25897598,
2.710833549,38.52030945,
2.712500095,39.22480774,
2.71416688,39.31578064,
2.715833187,39.42093658,
2.717499971,39.65979385,
2.719166756,38.98931885,
2.720833302,39.00975037,
2.722500086,39.08133316,
2.724166632,39.18279648,
2.725833416,39.08735657,
2.7275002,39.19152069,
2.729166746,39.25912476,
2.73083353,39.42979813,
2.732499838,39.17968369,
2.734166622,38.6406517,
2.735833406,38.99488068,
2.737499952,39.17579269,
2.739166737,39.39274216,
2.740833282,39.40921402,
2.742500067,39.0249939,
2.744166851,38.93731689,
2.745833397,39.03382492,
2.747500181,38.9902153,
2.749166727,39.54049683,
2.750833273,39.27207184,
2.752500057,39.51942444,
2.754166603,39.55549622,
2.755833387,39.49584961,
2.757499933,38.95450974,
2.759166718,39.2281456,
2.760833502,39.10796738,
2.762500048,39.3911171,
2.764166832,39.07740021,
2.765833378,38.80487823,
2.767500162,39.34800339,
2.769166708,38.84601974,
2.770833254,38.94897842,
2.772500038,39.17868805,
2.774166584,39.30340958,
2.775833368,39.2293129,
2.777500153,39.59701538,
2.779166698,39.21450424,
2.780833483,39.52214432,
2.782500029,39.38625336,
2.784166813,39.07133102,
2.785833597,39.26185226,
2.787499905,38.54584122,
2.789166689,39.01553726,
2.790833235,38.82526016,
2.792500019,39.22321701,
2.794166803,39.2298851,
2.795833349,38.90000916,
2.797500134,39.09897232,
2.799166679,39.05644226,
2.800833464,38.9156189,
2.802500248,39.19864655,
2.804166555,39.70546341,
2.80583334,38.99865341,
2.807499886,38.68985748,
2.80916667,38.91618729,
2.810833454,39.07714081,
2.8125,39.29389572,
2.814166784,38.79673004,
2.81583333,39.11946106,
2.817500114,39.07501221,
2.819166899,38.81472015,
2.820833445,38.95144653,
2.82249999,39.00626755,
2.824166536,39.79468536,
2.825833321,39.22563553,
2.827500105,39.04650879,
2.829166651,39.18707275,
2.830833435,38.65491104,
2.832499981,39.45211792,
2.834166765,38.93431473,
2.835833549,39.47641754,
2.837500095,39.72618866,
2.83916688,39.07187271,
2.840833187,39.15280914,
2.842499971,39.59040833,
2.844166756,39.20193481,
2.845833302,39.60077667,
2.847500086,39.03095245,
2.849166632,39.16139984,
2.850833416,39.057621,
2.8525002,38.89037323,
2.854166746,39.27692032,
2.85583353,38.43622971,
2.857499838,38.99291611,
2.859166622,39.2179985,
2.860833406,38.44220352,
2.862499952,38.73628235,
2.864166737,38.92411041,
2.865833282,39.14448929,
2.867500067,39.58076096,
2.869166851,39.53466034,
2.870833397,39.27058792,
2.872500181,38.96035004,
2.874166727,38.94866943,
2.875833273,39.51289749,
2.877500057,39.24575043,
2.879166603,38.86900711,
2.880833387,38.67093658,
2.882499933,38.49505615,
2.884166718,38.91062164,
2.885833502,38.36745453,
2.887500048,39.20606613,
2.889166832,39.3140831,
2.890833378,38.70774841,
2.892500162,38.46541214,
2.894166708,39.44814301,
2.895833254,39.46129227,
2.897500038,39.2497406,
2.899166584,38.31352615,
2.900833368,38.92488098,
2.902500153,39.26996231,
2.904166698,38.31426239,
2.905833483,39.22624969,
2.907500029,39.02904129,
2.909166813,39.8068924,
2.910833597,38.92298508,
2.912499905,38.64934921,
2.914166689,38.9254837,
2.915833235,39.58045197,
2.917500019,39.29335785,
2.919166803,38.75259781,
2.920833349,38.95144653,
2.922500134,39.06343079,
2.924166679,38.97434998,
2.925833464,38.54925537,
2.927500248,39.08421707,
2.929166555,38.69107437,
2.93083334,38.10502243,
2.932499886,39.24964523,
2.93416667,38.94320679,
2.935833454,38.99589539,
2.9375,38.88591385,
2.939166784,38.38486481,
2.94083333,39.09067535,
2.942500114,39.2117691,
2.944166899,39.28165817,
2.945833445,39.49697113,
2.94749999,39.23117828,
2.949166536,38.73327637,
2.950833321,39.16131973,
2.952500105,38.63787842,
2.954166651,39.05329132,
2.955833435,38.64891434,
2.957499981,39.03572083,
2.959166765,39.05444717,
2.960833549,39.31725311,
2.962500095,39.29494858,
2.96416688,38.79688263,
2.965833187,39.02277374,
2.967499971,38.82365417,
2.969166756,38.72022629,
2.970833302,38.89497375,
2.972500086,39.33884811,
2.974166632,39.0151825,
2.975833416,38.95696259,
2.9775002,38.71968079,
2.979166746,39.09044647,
2.98083353,39.2552681,
2.982499838,38.64569855,
2.984166622,39.5274086,
2.985833406,39.24954987,
2.987499952,38.30744553,
2.989166737,38.84983826,
2.990833282,38.99184418,
2.992500067,39.33124924,
2.994166851,38.79785156,
2.995833397,39.4412384,
2.997500181,39.11789322,
2.999166727,38.8948555,
3.000833273,39.08618927,
3.002500057,38.93701172,
3.004166603,38.64247894,
3.005833387,39.01262283,
3.007499933,38.58083725,
3.009166718,38.8486557,
3.010833502,38.63986588,
3.012500048,39.23665619,
3.014166832,38.95674133,
3.015833378,38.49204636,
3.017500162,38.59119797,
3.019166708,38.75400162,
3.020833254,39.52706909,
3.022500038,38.99027252,
3.024166584,39.21487808,
3.025833368,38.93946075,
3.027500153,39.1034317,
3.029166698,38.32777405,
3.030833483,38.65768051,
3.032500029,38.93262863,
3.034166813,38.86553955,
3.035833597,39.18149948,
3.037499905,39.05725098,
3.039166689,38.41092682,
3.040833235,39.06560135,
3.042500019,38.64296722,
3.044166803,38.5295639,
3.045833349,38.84415817,
3.047500134,38.67051697,
3.049166679,38.78290558,
3.050833464,39.09554672,
3.052500248,38.79251862,
3.054166555,39.06282043,
3.05583334,39.40729523,
3.057499886,38.57175446,
3.05916667,38.5216217,
3.060833454,39.03282928,
3.0625,38.80941391,
3.064166784,38.36736298,
3.06583333,38.8482399,
3.067500114,38.62190247,
3.069166899,39.21475601,
3.070833445,39.31859589,
3.07249999,38.3041954,
3.074166536,38.54954147,
3.075833321,38.75084305,
3.077500105,38.7118187,
3.079166651,38.90780258,
3.080833435,38.18076324,
3.082499981,38.94530487,
3.084166765,38.86662292,
3.085833549,38.86299896,
3.087500095,39.58094788,
3.08916688,38.23002243,
3.090833187,38.39300156,
3.092499971,38.3326149,
3.094166756,38.71777725,
3.095833302,38.8106842,
3.097500086,38.6076889,
3.099166632,39.03520203,
3.100833416,38.68322754,
3.1025002,39.27093506,
3.104166746,38.57234192,
3.10583353,38.19600677,
3.107499838,38.64332581,
3.109166622,38.83002472,
3.110833406,38.8544693,
3.112499952,38.95965195,
3.114166737,38.52256012,
3.115833282,38.53821182,
3.117500067,38.90172577,
3.119166851,39.06656647,
3.120833397,38.61026764,
3.122500181,38.33216095,
3.124166727,38.39934158,
3.125833273,38.93772125,
3.127500057,39.1881485,
3.129166603,38.84158325,
3.130833387,38.70598984,
3.132499933,38.39503479,
3.134166718,38.65606308,
3.135833502,39.27140045,
3.137500048,38.29954529,
3.139166832,38.13509369,
3.140833378,38.86547852,
3.142500162,38.61092758,
3.144166708,38.88315582,
3.145833254,38.93651199,
3.147500038,38.39499283,
3.149166584,39.46815872,
3.150833368,38.62663269,
3.152500153,38.84329224,
3.154166698,38.89032364,
3.155833483,39.54166031,
3.157500029,38.91949081,
3.159166813,38.78163147,
3.160833597,38.22702408,
3.162499905,38.54854965,
3.164166689,39.17227173,
3.165833235,38.88908386,
3.167500019,38.91173172,
3.169166803,38.68838882,
3.170833349,38.44670105,
3.172500134,38.35413742,
3.174166679,38.69574356,
3.175833464,38.55339432,
3.177500248,38.28189087,
3.179166555,39.0018692,
3.18083334,38.64566422,
3.182499886,38.96650314,
3.18416667,39.10027695,
3.185833454,38.65563965,
3.1875,39.68577194,
3.189166784,38.50444031,
3.19083333,38.5913353,
3.192500114,38.97687149,
3.194166899,38.87345123,
3.195833445,39.16941452,
3.19749999,38.79049683,
3.199166536,38.65596008,
3.200833321,38.84017563,
3.202500105,38.34010315,
3.204166651,38.92233276,
3.205833435,38.73297501,
3.207499981,39.00097275,
3.209166765,38.78346634,
3.210833549,39.04673004,
3.212500095,38.79729843,
3.21416688,38.61112595,
3.215833187,39.05778122,
3.217499971,38.40359497,
3.219166756,38.33747101,
3.220833302,39.3373909,
3.222500086,38.69884491,
3.224166632,38.77632523,
3.225833416,38.95797348,
3.2275002,39.2256279,
3.229166746,38.52307892,
3.23083353,38.54141617,
3.232499838,38.7293129,
3.234166622,38.47251511,
3.235833406,38.58678436,
3.237499952,38.47360611,
3.239166737,38.82717896,
3.240833282,39.50516891,
3.242500067,38.21606827,
3.244166851,38.95647049,
3.245833397,38.42308807,
3.247500181,39.01850128,
3.249166727,38.01845551,
3.250833273,38.95721054,
3.252500057,38.94742584,
3.254166603,39.01873779,
3.255833387,38.59249496,
3.257499933,38.44800568,
3.259166718,38.25082397,
3.260833502,38.05567169,
3.262500048,38.49792099,
3.264166832,37.9945488,
3.265833378,38.69542694,
3.267500162,38.94015121,
3.269166708,38.19149017,
3.270833254,38.08862305,
3.272500038,38.54476929,
3.274166584,38.90804291,
3.275833368,38.59104156,
3.277500153,38.42547226,
3.279166698,38.91597366,
3.280833483,38.78725433,
3.282500029,39.07315445,
3.284166813,38.07837677,
3.285833597,39.00738907,
3.287499905,38.56261826,
3.289166689,38.34082031,
3.290833235,38.25616074,
3.292500019,38.89570999,
3.294166803,38.67601395,
3.295833349,38.45148468,
3.297500134,38.79454422,
3.299166679,38.34342194,
3.300833464,38.49855042,
3.302500248,38.43626022,
3.304166555,39.15703201,
3.30583334,38.46243286,
3.307499886,38.84619141,
3.30916667,38.27179337,
3.310833454,38.62640762,
3.3125,38.30142975,
3.314166784,38.9609642,
3.31583333,38.87623215,
3.317500114,38.62459564,
3.319166899,38.88237381,
3.320833445,38.19966125,
3.32249999,38.27259445,
3.324166536,38.98898315,
3.325833321,38.94199371,
3.327500105,38.65097046,
3.329166651,39.42227554,
3.330833435,38.76509476,
3.332499981,38.48163223,
3.334166765,38.61447906,
3.335833549,38.56190872,
3.337500095,38.42766571,
3.33916688,39.216259,
3.340833187,39.33351517,
3.342499971,38.31103897,
3.344166756,38.34998703,
3.345833302,38.75098419,
3.347500086,38.79623032,
3.349166632,38.74276733,
3.350833416,38.3561821,
3.3525002,38.30381393,
3.354166746,38.57840347,
3.35583353,39.08266068,
3.357499838,37.83431244,
3.359166622,38.65114212,
3.360833406,38.4867897,
3.362499952,39.274086,
3.364166737,38.21443176,
3.365833282,38.06003189,
3.367500067,38.43204117,
3.369166851,38.49623489,
3.370833397,38.1264534,
3.372500181,39.07162857,
3.374166727,38.83234787,
3.375833273,38.89428711,
3.377500057,38.18689346,
3.379166603,38.38590622,
3.380833387,38.84122467,
3.382499933,38.88781357,
3.384166718,38.51530457,
3.385833502,38.52111816,
3.387500048,38.49556351,
3.389166832,38.80432129,
3.390833378,38.83224487,
3.392500162,38.24078369,
3.394166708,38.44152832,
3.395833254,38.45229721,
3.397500038,38.33308029,
3.399166584,38.60103226,
3.400833368,38.89421463,
3.402500153,38.40257645,
3.404166698,38.38230515,
3.405833483,38.74826813,
3.407500029,38.70364761,
3.409166813,39.12943268,
3.410833597,38.97066116,
3.412499905,38.33012009,
3.414166689,38.30800629,
3.415833235,38.27605438,
3.417500019,38.82579422,
3.419166803,39.1280632,
3.420833349,39.11660767,
3.422500134,38.15272903,
3.424166679,38.56167984,
3.425833464,38.47939682,
3.427500248,38.62591171,
3.429166555,38.50419235,
3.43083334,38.40575027,
3.432499886,38.66419601,
3.43416667,38.80919647,
3.435833454,38.7661438,
3.4375,38.77784729,
3.439166784,38.23605728,
3.44083333,38.84043503,
3.442500114,39.03873825,
3.444166899,38.8456459,
3.445833445,38.9048996,
3.44749999,38.26755142,
3.449166536,39.12075806,
3.450833321,38.78163528,
3.452500105,38.26055145,
3.454166651,37.99759674,
3.455833435,38.56012726,
3.457499981,38.77573395,
3.459166765,38.69900894,
3.460833549,38.45095444,
3.462500095,37.58454514,
3.46416688,38.2092514,
3.465833187,38.23404694,
3.467499971,38.45722961,
3.469166756,38.33826447,
3.470833302,39.06328201,
3.472500086,38.78165817,
3.474166632,38.68723297,
3.475833416,37.92386246,
3.4775002,38.85073853,
3.479166746,38.0029335,
3.48083353,39.02849579,
3.482499838,38.70811462,
3.484166622,38.49117279,
3.485833406,39.18334579,
3.487499952,38.54092026,
3.489166737,38.69601822,
3.490833282,38.63716125,
3.492500067,38.14992142,
3.494166851,38.60430145,
3.495833397,38.53956604,
3.497500181,38.59438324,
3.499166727,38.73114777,
3.500833273,38.54532623,
3.502500057,38.62863159,
3.504166603,38.20517349,
3.505833387,38.71741486,
3.507499933,38.89082718,
3.509166718,38.64836884,
3.510833502,38.730896,
3.512500048,38.62039948,
3.514166832,38.51071167,
3.515833378,37.76573944,
3.517500162,38.81675339,
3.519166708,38.52020264,
3.520833254,38.7196312,
3.522500038,38.69158173,
3.524166584,38.1436882,
3.525833368,38.54555511,
3.527500153,38.55734253,
3.529166698,38.47812653,
3.530833483,38.34077454,
3.532500029,38.36184311,
3.534166813,38.34735489,
3.535833597,38.4474411,
3.537499905,38.77205276,
3.539166689,38.29154205,
3.540833235,38.38537979,
3.542500019,39.1779213,
3.544166803,38.10674667,
3.545833349,38.84877014,
3.547500134,38.02222443,
3.549166679,38.67764664,
3.550833464,38.29562378,
3.552500248,38.48134232,
3.554166555,38.37108231,
3.55583334,38.21805191,
3.557499886,38.31510925,
3.55916667,38.79624939,
3.560833454,38.87753296,
3.5625,38.21248245,
3.564166784,38.23311996,
3.56583333,38.61178589,
3.567500114,38.48397064,
3.569166899,38.85062408,
3.570833445,38.009552,
3.57249999,37.94526291,
3.574166536,38.33895493,
3.575833321,38.68605804,
3.577500105,38.78544998,
3.579166651,38.91759491,
3.580833435,38.80277252,
3.582499981,38.012146,
3.584166765,38.40348053,
3.585833549,38.7403183,
3.587500095,38.17550278,
3.58916688,38.41859436,
3.590833187,38.57013702,
3.592499971,38.10065842,
3.594166756,38.62091446,
3.595833302,38.32685471,
3.597500086,38.93771744,
3.599166632,38.34618759,
3.600833416,38.03415298,
3.6025002,37.96297073,
3.604166746,37.95215988,
3.60583353,38.38789368,
3.607499838,38.3568573,
3.609166622,38.64333344,
3.610833406,38.43129349,
3.612499952,38.61148453,
3.614166737,38.22799301,
3.615833282,38.88693237,
3.617500067,38.551548,
3.619166851,38.31606674,
3.620833397,38.75511169,
3.622500181,39.11416245,
3.624166727,38.66311646,
3.625833273,38.38127136,
3.627500057,38.40447617,
3.629166603,38.40984344,
3.630833387,38.04402542,
3.632499933,38.95557404,
3.634166718,38.18863678,
3.635833502,38.23797226,
3.637500048,38.89875793,
3.639166832,38.33804703,
3.640833378,38.241642,
3.642500162,38.17004776,
3.644166708,38.41849136,
3.645833254,38.49608994,
3.647500038,38.41638184,
3.649166584,38.59802628,
3.650833368,38.85877991,
3.652500153,38.59936523,
3.654166698,38.54439163,
3.655833483,38.63882065,
3.657500029,38.21463394,
3.659166813,38.1379509,
3.660833597,38.79582977,
3.662499905,38.75754166,
3.664166689,38.96949005,
3.665833235,37.92438507,
3.667500019,38.46923447,
3.669166803,38.96792984,
3.670833349,38.79579926,
3.672500134,38.67329407,
3.674166679,38.63512039,
3.675833464,38.41631317,
3.677500248,38.95906067,
3.679166555,38.84162903,
3.68083334,38.49238586,
3.682499886,38.23106384,
3.68416667,38.19703293,
3.685833454,38.72106552,
3.6875,39.09215546,
3.689166784,38.44730377,
3.69083333,39.21292877,
3.692500114,38.14689636,
3.694166899,38.29169464,
3.695833445,38.47116089,
3.69749999,38.45727539,
3.699166536,38.34609985,
3.700833321,38.35712433,
3.702500105,38.10210037,
3.704166651,38.89762497,
3.705833435,38.40827179,
3.707499981,38.98968887,
3.709166765,38.29362488,
3.710833549,38.36487198,
3.712500095,38.42549133,
3.71416688,38.53197098,
3.715833187,39.22922516,
3.717499971,37.92028427,
3.719166756,38.59791183,
3.720833302,38.13148499,
3.722500086,38.66618729,
3.724166632,38.34630203,
3.725833416,38.45996857,
3.7275002,38.26561737,
3.729166746,38.5535202,
3.73083353,38.48161697,
3.732499838,38.67697906,
3.734166622,38.29996109,
3.735833406,38.7894516,
3.737499952,38.70904541,
3.739166737,38.27487564,
3.740833282,38.69068527,
3.742500067,38.06885529,
3.744166851,37.99255753,
3.745833397,38.46267319,
3.747500181,37.7685051,
3.749166727,38.45055389,
3.750833273,37.92056656,
3.752500057,38.20199203,
3.754166603,37.63822556,
3.755833387,38.39391327,
3.757499933,37.78559113,
3.759166718,38.1401329,
3.760833502,37.86331177,
3.762500048,38.62068939,
3.764166832,38.48234177,
3.765833378,38.41976166,
3.767500162,38.41042709,
3.769166708,38.43754578,
3.770833254,38.88869095,
3.772500038,39.09583282,
3.774166584,38.56652069,
3.775833368,38.88642502,
3.777500153,38.16588974,
3.779166698,38.88977814,
3.780833483,38.33652878,
3.782500029,38.34506607,
3.784166813,38.25184631,
3.785833597,38.55374527,
3.787499905,39.17914963,
3.789166689,38.39814758,
3.790833235,38.35146713,
3.792500019,38.40301132,
3.794166803,38.25767136,
3.795833349,38.09969711,
3.797500134,38.5753212,
3.799166679,38.59833908,
3.800833464,38.24212265,
3.802500248,38.39873505,
3.804166555,38.5825882,
3.80583334,38.69916534,
3.807499886,38.38218689,
3.80916667,37.78921127,
3.810833454,37.77740097,
3.8125,38.47039032,
3.814166784,37.76141357,
3.81583333,38.94385147,
3.817500114,38.021492,
3.819166899,37.9650383,
3.820833445,38.62478256,
3.82249999,37.54293823,
3.824166536,37.80989456,
3.825833321,38.35052109,
3.827500105,38.43572998,
3.829166651,38.28401184,
3.830833435,38.44893646,
3.832499981,38.28213882,
3.834166765,37.93434525,
3.835833549,38.0356369,
3.837500095,37.86822891,
3.83916688,37.95129395,
3.840833187,38.39934158,
3.842499971,38.32187271,
3.844166756,38.32477951,
3.845833302,39.02631378,
3.847500086,38.9488945,
3.849166632,38.36962509,
3.850833416,37.99500656,
3.8525002,38.20193481,
3.854166746,38.46343231,
3.85583353,38.83895493,
3.857499838,38.13687897,
3.859166622,37.87380219,
3.860833406,38.60948944,
3.862499952,38.34167099,
3.864166737,38.04741669,
3.865833282,38.58778763,
3.867500067,38.57401276,
3.869166851,37.91959381,
3.870833397,38.87514877,
3.872500181,37.92357254,
3.874166727,38.78601456,
3.875833273,38.19373703,
3.877500057,38.14282227,
3.879166603,37.85803604,
3.880833387,38.18635559,
3.882499933,37.79015732,
3.884166718,38.60282135,
3.885833502,38.527565,
3.887500048,38.76154709,
3.889166832,38.49555588,
3.890833378,38.61935043,
3.892500162,38.15881348,
3.894166708,38.17366409,
3.895833254,38.73739243,
3.897500038,38.58359528,
3.899166584,38.20782852,
3.900833368,38.07176971,
3.902500153,38.50455475,
3.904166698,38.34073639,
3.905833483,37.87931442,
3.907500029,37.65508652,
3.909166813,38.08654404,
3.910833597,37.90792465,
3.912499905,38.09379578,
3.914166689,38.3176918,
3.915833235,38.31694412,
3.917500019,38.20000839,
3.919166803,38.22039032,
3.920833349,38.77430344,
3.922500134,39.11919403,
3.924166679,38.71828461,
3.925833464,38.3887825,
3.927500248,37.99357986,
3.929166555,37.76932144,
3.93083334,38.60684586,
3.932499886,38.50411987,
3.93416667,38.54279709,
3.935833454,38.11287308,
3.9375,38.83535004,
3.939166784,38.37075043,
3.94083333,37.68715286,
3.942500114,38.46920395,
3.944166899,37.98750305,
3.945833445,38.07378769,
3.94749999,38.14263916,
3.949166536,38.4014473,
3.950833321,38.61509323,
3.952500105,38.2359314,
3.954166651,38.61303711,
3.955833435,38.71342468,
3.957499981,38.57078934,
3.959166765,38.45396042,
3.960833549,38.31274033,
3.962500095,37.98134613,
3.96416688,38.2986412,
3.965833187,38.44843292,
3.967499971,38.37531662,
3.969166756,38.84730148,
3.970833302,37.89239502,
3.972500086,37.86405945,
3.974166632,38.83410263,
3.975833416,37.95305252,
3.9775002,38.31510925,
3.979166746,38.33665848,
3.98083353,38.49614334,
3.982499838,37.85167313,
3.984166622,37.91234207,
3.985833406,38.22048569,
3.987499952,38.25143051,
3.989166737,38.2677803,
3.990833282,38.59308624,
3.992500067,37.59643555,
3.994166851,38.17642593,
3.995833397,38.40516281,
3.997500181,37.98545837,
3.999166727,38.10964203,
4.000833511,38.18352127,
4.002500057,37.88760757,
4.004166603,38.34780121,
4.005833626,38.10447311,
4.007500172,38.22758865,
4.009166718,38.47368622,
4.010833263,38.127285,
4.012499809,38.81491852,
4.014166832,38.70272446,
4.015833378,37.93429184,
4.017499924,38.34606934,
4.019166946,38.14953613,
4.020833492,37.75249863,
4.022500038,38.19424438,
4.024166584,38.74554062,
4.025833607,38.59537506,
4.027500153,39.13478851,
4.029166698,37.75976563,
4.030833244,38.09189224,
4.03249979,37.93569946,
4.034166813,38.13942337,
4.035833359,38.38485718,
4.037499905,38.56906509,
4.039166927,38.68066406,
4.040833473,38.52466583,
4.042500019,38.79137039,
4.044167042,38.55754852,
4.045833111,38.14963531,
4.047500134,38.05200958,
4.049166679,38.7192688,
4.050833225,38.05528641,
4.052500248,37.79578781,
4.054166794,37.83733368,
4.05583334,38.24848938,
4.057499886,38.18118286,
4.059166908,38.61735153,
4.060833454,38.11218262,
4.0625,37.87144089,
4.064166546,38.33714294,
4.065833092,38.0969162,
4.067500114,37.96323776,
4.06916666,38.4826355,
4.070833206,38.46019363,
4.072500229,38.40589523,
4.074166775,38.47619629,
4.075833321,38.433815,
4.077500343,38.1621666,
4.079166889,38.55086899,
4.080833435,38.55547714,
4.082499981,38.02254868,
4.084166527,38.003582,
4.085833549,37.98257065,
4.087500095,38.5930481,
4.089166641,37.86723709,
4.090833187,37.44281006,
4.09250021,38.06765747,
4.094166756,38.13902664,
4.095833302,38.23442078,
4.097500324,38.63915634,
4.099166393,38.28534317,
4.100833416,38.09757996,
4.102499962,38.11591339,
4.104166508,38.34610367,
4.10583353,38.49794388,
4.107500076,37.7349472,
4.109166622,38.41584778,
4.110833645,38.20941162,
4.112500191,38.77363586,
4.114166737,38.17254257,
4.115833282,38.14805603,
4.117499828,38.34275055,
4.119166851,37.83079147,
4.120833397,38.02916718,
4.122499943,38.35194778,
4.124166489,38.65064621,
4.125833511,38.46426392,
4.127500057,38.29177094,
4.129166603,38.30286789,
4.130833626,37.84063721,
4.132500172,39.06648636,
4.134166718,38.13398743,
4.135833263,38.39297104,
4.137499809,37.75932693,
4.139166832,38.48894119,
4.140833378,38.58351135,
4.142499924,38.93135834,
4.144166946,38.34727859,
4.145833492,38.4506073,
4.147500038,37.99393845,
4.149166584,38.97529984,
4.150833607,38.33934784,
4.152500153,38.35165787,
4.154166698,38.12235641,
4.155833244,38.28738785,
4.15749979,38.82207108,
4.159166813,38.27231216,
4.160833359,37.96707535,
4.162499905,38.26823044,
4.164166927,37.79319763,
4.165833473,38.19854736,
4.167500019,37.9687233,
4.169167042,38.56539536,
4.170833111,38.89281464,
4.172500134,37.99640274,
4.174166679,38.26963806,
4.175833225,38.09939575,
4.177500248,38.3459549,
4.179166794,38.62340546,
4.18083334,38.13233185,
4.182499886,38.3937645,
4.184166908,38.36752701,
4.185833454,38.38544464,
4.1875,37.86711502,
4.189166546,38.29216766,
4.190833092,38.23714447,
4.192500114,37.88019562,
4.19416666,38.51324844,
4.195833206,38.19131851,
4.197500229,38.15481186,
4.199166775,38.19592285,
4.200833321,38.12773132,
4.202500343,38.32535553,
4.204166889,38.45739746,
4.205833435,38.24848557,
4.207499981,38.1932106,
4.209166527,38.78130722,
4.210833549,38.76735687,
4.212500095,38.03400803,
4.214166641,38.77656937,
4.215833187,38.09283066,
4.21750021,38.82667542,
4.219166756,38.96735764,
4.220833302,38.26708984,
4.222500324,38.0757103,
4.224166393,38.09205627,
4.225833416,38.25365448,
4.227499962,38.05755997,
4.229166508,37.98510742,
4.23083353,38.09647369,
4.232500076,38.47686386,
4.234166622,38.03959656,
4.235833645,38.57973862,
4.237500191,38.28878403,
4.239166737,38.77061081,
4.240833282,38.12531662,
4.242499828,38.2840004,
4.244166851,38.41964722,
4.245833397,37.41785049,
4.247499943,38.18019867,
4.249166489,38.31589127,
4.250833511,38.06869507,
4.252500057,38.11532593,
4.254166603,38.15061569,
4.255833626,38.28757858,
4.257500172,37.99103165,
4.259166718,37.94932938,
4.260833263,38.34865189,
4.262499809,38.38394547,
4.264166832,38.39138412,
4.265833378,38.29757309,
4.267500401,38.76426315,
4.26916647,38.22072983,
4.270833492,37.92406845,
4.272500038,37.83033752,
4.274167061,38.02904129,
4.275833607,38.12977982,
4.277499676,37.79354858,
4.279166698,37.95379257,
4.280833244,37.8301239,
4.282500267,38.34904861,
4.284166813,38.02272415,
4.285833359,38.02821732,
4.287499905,38.32510376,
4.289166927,38.47102356,
4.290833473,38.14768982,
4.292500496,38.05055618,
4.294166565,38.33969879,
4.295833111,37.97183609,
4.297500134,38.32996368,
4.299166679,38.14470291,
4.300833702,38.17611694,
4.302499771,38.17234421,
4.304166794,38.68459702,
4.30583334,38.61632538,
4.307500362,37.87788773,
4.309166908,38.19591904,
4.310833454,38.53251648,
4.3125,38.43206406,
4.314166546,37.86998367,
4.315833569,38.12514877,
4.317500114,38.58177567,
4.31916666,38.28265381,
4.320833206,38.27020645,
4.322500229,37.80897141,
4.324166775,38.0700531,
4.325833797,37.60916138,
4.327499866,38.4786377,
4.329166889,38.58910751,
4.330833435,38.50460434,
4.332499981,38.16978455,
4.334167004,37.94922256,
4.335833073,38.37153244,
4.337500095,38.0453949,
4.339166641,38.03445816,
4.340833664,38.27061462,
4.34250021,37.95043945,
4.344166756,38.13735199,
4.345833302,38.45455933,
4.347500324,38.49348831,
4.34916687,38.19226456,
4.350833416,38.20639801,
4.352499962,37.66369247,
4.354166508,38.12407684,
4.35583353,38.45504379,
4.357500076,38.27278137,
4.359167099,38.32956696,
4.360833168,38.00504684,
4.362500191,38.03814697,
4.364166737,38.64460373,
4.365833759,38.43708801,
4.367500305,38.25869751,
4.369166374,38.36830521,
4.370833397,37.79650497,
4.372499943,37.3724556,
4.374166965,37.86007309,
4.375833511,37.59893036,
4.377500057,38.23542786,
4.379166603,37.57354736,
4.380833626,37.84529114,
4.382500172,38.81374359,
4.384167194,38.01678848,
4.385833263,38.06916428,
4.387499809,37.63705444,
4.389166832,38.68641663,
4.390833378,38.35112381,
4.392500401,38.96357727,
4.39416647,38.11182404,
4.395833492,37.79385376,
4.397500038,38.83607483,
4.399167061,38.07202148,
4.400833607,37.99697113,
4.402499676,37.76029587,
4.404166698,37.88039017,
4.405833244,37.86892319,
4.407500267,37.89575958,
4.409166813,38.45583725,
4.410833359,38.47166061,
4.412499905,38.31716919,
4.414166927,37.96163559,
4.415833473,38.76355362,
4.417500496,38.6646843,
4.419166565,38.37558746,
4.420833111,38.33100891,
4.422500134,38.27386856,
4.424166679,37.56358719,
4.425833702,38.20244598,
4.427499771,37.94267273,
4.429166794,38.37034225,
4.43083334,38.24331665,
4.432500362,37.9158287,
4.434166908,38.32809448,
4.435833454,37.63319778,
4.4375,38.48809052,
4.439166546,37.74507141,
4.440833569,38.13183594,
4.442500114,38.53177643,
4.44416666,38.51220703,
4.445833206,38.05544281,
4.447500229,37.87971878,
4.449166775,38.4170723,
4.450833797,38.41841888,
4.452499866,37.88591766,
4.454166889,38.33086777,
4.455833435,37.86216354,
4.457499981,38.050354,
4.459167004,37.9449234,
4.460833073,38.22521973,
4.462500095,38.02048874,
4.464166641,38.25965881,
4.465833664,37.93493271,
4.46750021,38.11244583,
4.469166756,38.30650711,
4.470833302,37.968647,
4.472500324,37.69607544,
4.47416687,37.90762329,
4.475833416,37.85669708,
4.477499962,37.68324661,
4.479166508,38.11860275,
4.48083353,38.15990067,
4.482500076,38.65682983,
4.484167099,38.30766296,
4.485833168,37.72437286,
4.487500191,38.14300919,
4.489166737,38.2216835,
4.490833759,38.50035858,
4.492500305,38.19874191,
4.494166374,38.33528137,
4.495833397,37.69512177,
4.497499943,38.11283112,
4.499166965,37.93336868,
4.500833511,38.30577087,
4.502500057,38.48189163,
4.504166603,38.53328323,
4.505833626,37.9004364,
4.507500172,38.37161255,
4.509167194,38.02818298,
4.510833263,38.50288391,
4.512499809,37.91867065,
4.514166832,38.1999054,
4.515833378,38.05867767,
4.517500401,38.25162125,
4.51916647,38.26597214,
4.520833492,38.64816666,
4.522500038,37.76430893,
4.524167061,38.40677643,
4.525833607,38.4694519,
4.527499676,37.32851028,
4.529166698,38.35643768,
4.530833244,38.63793564,
4.532500267,38.32978058,
4.534166813,38.37070847,
4.535833359,37.98897552,
4.537499905,37.92695236,
4.539166927,38.21569824,
4.540833473,38.5978241,
4.542500496,38.22729492,
4.544166565,38.40323639,
4.545833111,37.99736404,
4.547500134,38.07777786,
4.549166679,37.91281128,
4.550833702,38.20153046,
4.552499771,37.8204422,
4.554166794,37.90885162,
4.55583334,37.98963928,
4.557500362,38.19965363,
4.559166908,37.98263931,
4.560833454,37.71122742,
4.5625,38.04810333,
4.564166546,38.11891937,
4.565833569,37.84951782,
4.567500114,37.63085556,
4.56916666,38.92672729,
4.570833206,37.78790665,
4.572500229,37.91048813,
4.574166775,37.67786026,
4.575833797,38.23100281,
4.577499866,37.95862579,
4.579166889,38.41665268,
4.580833435,38.06508636,
4.582499981,38.50403214,
4.584167004,38.06100464,
4.585833073,38.48383713,
4.587500095,37.82446289,
4.589166641,37.76491165,
4.590833664,38.21120453,
4.59250021,37.92779541,
4.594166756,38.9564476,
4.595833302,37.43720245,
4.597500324,37.99725342,
4.59916687,38.50632858,
4.600833416,37.64354324,
4.602499962,37.90790939,
4.604166508,38.17937851,
4.60583353,38.23376083,
4.607500076,38.75703812,
4.609167099,38.31322098,
4.610833168,38.45605469,
4.612500191,37.84921646,
4.614166737,37.92583084,
4.615833759,37.69735718,
4.617500305,37.55871201,
4.619166374,39.04289246,
4.620833397,37.94039536,
4.622499943,38.35351181,
4.624166965,38.65177155,
4.625833511,38.29534149,
4.627500057,38.50656891,
4.629166603,38.39483261,
4.630833626,37.96130753,
4.632500172,38.4515152,
4.634167194,37.84243774,
4.635833263,38.30467606,
4.637499809,38.16937256,
4.639166832,37.86670685,
4.640833378,38.52380753,
4.642500401,37.69891739,
4.64416647,38.40592957,
4.645833492,38.4847374,
4.647500038,38.42358398,
4.649167061,37.88760376,
4.650833607,37.85259247,
4.652499676,38.44557953,
4.654166698,38.26496506,
4.655833244,38.24339294,
4.657500267,38.42876816,
4.659166813,38.35409164,
4.660833359,37.70586395,
4.662499905,38.38826752,
4.664166927,38.42064667,
4.665833473,38.2898674,
4.667500496,37.83456421,
4.669166565,37.66192627,
4.670833111,38.32241821,
4.672500134,38.2775116,
4.674166679,38.36688614,
4.675833702,38.17830276,
4.677499771,38.21203995,
4.679166794,37.89266968,
4.68083334,38.24054718,
4.682500362,38.19174194,
4.684166908,38.34768295,
4.685833454,37.79838562,
4.6875,38.08283997,
4.689166546,37.35187912,
4.690833569,38.31401825,
4.692500114,37.81260681,
4.69416666,37.96696472,
4.695833206,37.6902504,
4.697500229,38.18678665,
4.699166775,38.01615906,
4.700833797,37.73075485,
4.702499866,37.98233414,
4.704166889,37.74874878,
4.705833435,37.99631882,
4.707499981,38.2942009,
4.709167004,38.29622269,
4.710833073,37.70541,
4.712500095,37.96371841,
4.714166641,37.80541229,
4.715833664,38.0342598,
4.71750021,37.93298721,
4.719166756,37.97647476,
4.720833302,37.52396011,
4.722500324,38.01106644,
4.72416687,37.42794418,
4.725833416,38.38941956,
4.727499962,38.42304993,
4.729166508,38.08601761,
4.73083353,38.61628723,
4.732500076,38.44714737,
4.734167099,37.76951218,
4.735833168,37.70270157,
4.737500191,38.41291046,
4.739166737,37.78392029,
4.740833759,38.33208466,
4.742500305,38.17912292,
4.744166374,37.69815445,
4.745833397,38.3277092,
4.747499943,38.18574905,
4.749166965,37.86161423,
4.750833511,37.84122467,
4.752500057,38.66661453,
4.754166603,38.36086273,
4.755833626,38.11660385,
4.757500172,38.32117844,
4.759167194,38.25617218,
4.760833263,37.85916138,
4.762499809,37.97699356,
4.764166832,37.60903549,
4.765833378,37.80235291,
4.767500401,37.95981598,
4.76916647,37.79901886,
4.770833492,38.26068878,
4.772500038,37.81753922,
4.774167061,37.92337036,
4.775833607,38.16472244,
4.777499676,38.29140472,
4.779166698,37.79122543,
4.780833244,37.96136093,
4.782500267,38.59069061,
4.784166813,38.39635086,
4.785833359,37.93156052,
4.787499905,37.39912415,
4.789166927,37.77495193,
4.790833473,38.14179993,
4.792500496,38.02445221,
4.794166565,38.02898026,
4.795833111,38.24625015,
4.797500134,38.09535217,
4.799166679,38.70543671,
4.800833702,37.38850784,
4.802499771,38.49132919,
4.804166794,37.91949844,
4.80583334,37.57539368,
4.807500362,38.19541168,
4.809166908,37.67661667,
4.810833454,38.7507019,
4.8125,38.20877457,
4.814166546,37.85044861,
4.815833569,38.35769653,
4.817500114,38.00576401,
4.81916666,38.15732193,
4.820833206,37.69914246,
4.822500229,37.88844681,
4.824166775,38.22942352,
4.825833797,37.61507034,
4.827499866,38.17812347,
4.829166889,37.90673065,
4.830833435,37.72892761,
4.832499981,38.31772614,
4.834167004,38.14135361,
4.835833073,37.96979904,
4.837500095,37.85808182,
4.839166641,38.18812943,
4.840833664,38.21113586,
4.84250021,37.8432312,
4.844166756,37.98158646,
4.845833302,37.9617157,
4.847500324,37.61293411,
4.84916687,37.67881393,
4.850833416,38.02914047,
4.852499962,38.05665207,
4.854166508,38.23196793,
4.85583353,38.06633377,
4.857500076,37.46047592,
4.859167099,37.89591599,
4.860833168,38.31310654,
4.862500191,38.15086746,
4.864166737,38.39418793,
4.865833759,38.32193756,
4.867500305,37.92087555,
4.869166374,37.86716843,
4.870833397,38.00931549,
4.872499943,38.29787445,
4.874166965,38.37759781,
4.875833511,38.09331131,
4.877500057,37.85441208,
4.879166603,37.65197372,
4.880833626,38.19816589,
4.882500172,37.95973587,
4.884167194,37.89805222,
4.885833263,37.95523834,
4.887499809,37.74558258,
4.889166832,38.31374359,
4.890833378,38.27957153,
4.892500401,38.32250977,
4.89416647,37.71871185,
4.895833492,37.50833893,
4.897500038,38.20681381,
4.899167061,38.02259064,
4.900833607,37.67029953,
4.902499676,38.1368866,
4.904166698,38.09452438,
4.905833244,37.5239296,
4.907500267,38.52806854,
4.909166813,38.0157814,
4.910833359,37.85401154,
4.912499905,38.24961853,
4.914166927,37.90628433,
4.915833473,37.91906738,
4.917500496,38.25447083,
4.919166565,38.33152771,
4.920833111,38.31003952,
4.922500134,37.66926956,
4.924166679,38.59552002,
4.925833702,38.54454041,
4.927499771,38.28121948,
4.929166794,37.7169075,
4.93083334,37.62743759,
4.932500362,37.99559402,
4.934166908,37.94824982,
4.935833454,38.2928009,
4.9375,38.14904404,
4.939166546,37.72046661,
4.940833569,37.87208176,
4.942500114,37.83170319,
4.94416666,38.59326172,
4.945833206,38.18534851,
4.947500229,38.61480331,
4.949166775,38.37127304,
4.950833797,37.90048599,
4.952499866,38.25351715,
4.954166889,38.45287704,
4.955833435,38.42387772,
4.957499981,38.1285553,
4.959167004,37.80265045,
4.960833073,38.56703949,
4.962500095,37.93057251,
4.964166641,37.51884079,
4.965833664,38.13763809,
4.96750021,37.67699814,
4.969166756,38.03037262,
4.970833302,38.15974045,
4.972500324,38.16449356,
4.97416687,37.38594818,
4.975833416,37.19022369,
4.977499962,38.43278885,
4.979166508,38.29482269,
4.98083353,38.07482147,
4.982500076,38.02810287,
4.984167099,37.92087555,
4.985833168,38.39322662,
4.987500191,38.13539505,
4.989166737,38.19959259,
4.990833759,38.11562347,
4.992500305,37.98595047,
4.994166374,38.21493149,
4.995833397,38.00741577,
4.997499943,38.23932648,
4.999166965,38.35932922,
5.000833511,38.30981827,
5.002500057,37.69573975,
5.004166603,37.68080521,
5.005833626,38.51786041,
5.007500172,37.57572174,
5.009167194,37.91356277,
5.010833263,37.95090103,
5.012499809,37.91763687,
5.014166832,38.32121277,
5.015833378,37.96176529,
5.017500401,38.37004471,
5.01916647,38.79164886,
5.020833492,37.20891953,
5.022500038,38.01865387,
5.024167061,37.56217957,
5.025833607,38.1356926,
5.027499676,37.81922913,
5.029166698,38.04698181,
5.030833244,37.45601273,
5.032500267,38.41669464,
5.034166813,38.01976013,
5.035833359,37.77491379,
5.037499905,38.4158287,
5.039166927,37.59997177,
5.040833473,38.2265625,
5.042500496,37.69199753,
5.044166565,38.03586197,
5.045833111,38.01335526,
5.047500134,38.28076172,
5.049166679,38.02949905,
5.050833702,38.0318222,
5.052499771,37.98715591,
5.054166794,37.45445251,
5.05583334,37.38236237,
5.057500362,37.25899506,
5.059166908,37.91057968,
5.060833454,37.6661644,
5.0625,38.00938034,
5.064166546,38.09535217,
5.065833569,37.87097168,
5.067500114,37.52269745,
5.06916666,37.52807236,
5.070833206,38.18353653,
5.072500229,37.74085999,
5.074166775,38.10258102,
5.075833797,38.15966034,
5.077499866,38.28028488,
5.079166889,38.34952927,
5.080833435,38.24697113,
5.082499981,37.70816422,
5.084167004,37.5016098,
5.085833073,37.70629501,
5.087500095,38.15285873,
5.089166641,38.29862213,
5.090833664,38.08858871,
5.09250021,38.64703369,
5.094166756,38.2829361,
5.095833302,37.51361084,
5.097500324,37.42990494,
5.09916687,38.37319565,
5.100833416,38.21678543,
5.102499962,38.65967178,
5.104166508,37.83200073,
5.10583353,37.89996719,
5.107500076,38.31142807,
5.109167099,37.98244095,
5.110833168,37.56732178,
5.112500191,37.76657104,
5.114166737,38.46540451,
5.115833759,37.83169937,
5.117500305,37.76971817,
5.119166374,37.59367752,
5.120833397,37.73407364,
5.122499943,37.82038498,
5.124166965,37.23971558,
5.125833511,37.40949249,
5.127500057,37.96654892,
5.129166603,38.54844284,
5.130833626,38.28508759,
5.132500172,38.171772,
5.134167194,38.41769028,
5.135833263,37.98508072,
5.137499809,38.74150848,
5.139166832,38.23083496,
5.140833378,38.25219727,
5.142500401,37.88839722,
5.14416647,37.66669083,
5.145833492,37.97922897,
5.147500038,37.82363892,
5.149167061,38.2802124,
5.150833607,37.93575287,
5.152499676,37.53798676,
5.154166698,37.41640472,
5.155833244,38.32666016,
5.157500267,37.84825134,
5.159166813,38.20663452,
5.160833359,37.30686569,
5.162499905,38.46085739,
5.164166927,36.91434097,
5.165833473,37.71766281,
5.167500496,37.81122589,
5.169166565,37.70781326,
5.170833111,37.96794891,
5.172500134,37.53441238,
5.174166679,38.00579071,
5.175833702,37.94322586,
5.177499771,37.82027054,
5.179166794,37.24773788,
5.18083334,37.7919693,
5.182500362,37.63012314,
5.184166908,38.63048935,
5.185833454,37.64448547,
5.1875,37.98165131,
5.189166546,37.8204422,
5.190833569,37.7563591,
5.192500114,38.28876495,
5.19416666,37.65619659,
5.195833206,37.61550522,
5.197500229,38.11880875,
5.199166775,38.35257721,
5.200833797,38.10216904,
5.202499866,37.60185242,
5.204166889,38.15509033,
5.205833435,37.87834549,
5.207499981,38.4655838,
5.209167004,38.14671326,
5.210833073,38.21382523,
5.212500095,37.73977661,

