1,,
Time (min),Intensity (a.u.),
0.0008333333535,3.554066658,
0.002500000177,3.660203457,
0.004166666884,3.62438035,
0.005833333358,3.417417288,
0.007500000298,3.54691267,
0.009166667238,3.670394897,
0.01083333418,3.693119049,
0.01250000019,3.511009932,
0.01416666713,3.496544361,
0.01583333313,3.706493616,
0.01750000194,3.478812695,
0.01916666701,3.545120716,
0.02083333395,3.558802605,
0.02250000089,3.476643801,
0.02416666783,3.594981194,
0.02583333477,3.325565815,
0.02749999985,3.340166807,
0.02916666679,3.575201511,
0.03083333373,3.607316256,
0.03250000253,3.445562363,
0.03416666761,3.486890316,
0.03583333641,3.445833206,
0.03750000149,3.361114502,
0.03916667029,3.595618248,
0.04083333537,3.352110624,
0.04250000045,3.618946791,
0.04416666925,3.520123482,
0.04583333433,3.615282059,
0.04750000313,3.451797247,
0.04916666821,3.529446363,
0.05083333328,3.389429569,
0.05250000209,3.429841995,
0.05416666716,3.494942188,
0.05583333597,3.403051615,
0.05750000104,3.470626593,
0.05916666612,3.472076893,
0.06083333492,3.756696701,
0.0625,3.650489807,
0.06416667253,3.51511693,
0.0658333376,3.469577789,
0.06750000268,3.597318411,
0.06916666776,3.533778667,
0.07083333284,3.471777916,
0.07249999791,3.612025976,
0.07416667044,3.681197643,
0.07583333552,3.409883261,
0.0775000006,3.40630579,
0.07916666567,3.336947441,
0.08083333075,3.56785965,
0.08250000328,3.498166561,
0.08416666836,3.43182373,
0.08583333343,3.597977877,
0.08749999851,3.390879154,
0.08916666359,3.356041193,
0.09083333611,3.503644705,
0.09250000119,3.417821169,
0.09416666627,3.50214076,
0.09583333135,3.417419195,
0.09749999642,3.355888605,
0.09916666895,3.7173388,
0.100833334,3.296617508,
0.1024999991,3.525790215,
0.1041666642,3.580271006,
0.1058333293,3.538549185,
0.1075000018,3.587961674,
0.1091666669,3.263428211,
0.1108333319,66.52272034,
0.112499997,116.5671387,
0.1141666621,115.0088425,
0.1158333346,120.2713928,
0.1174999997,112.8452377,
0.1191666648,118.5159302,
0.1208333299,117.6602783,
0.1224999949,117.8949814,
0.1241666749,116.0009918,
0.1258333325,117.1450729,
0.1274999976,117.5338135,
0.1291666627,122.7057571,
0.1308333278,122.5609283,
0.1325000077,113.4496689,
0.1341666728,112.7152863,
0.1358333379,112.9307022,
0.137500003,113.0253372,
0.1391666681,113.022995,
0.1408333331,113.4577255,
0.1424999982,113.5736389,
0.1441666782,113.0001678,
0.1458333284,112.4249496,
0.1475000083,113.1367111,
0.1491666585,113.3249817,
0.1508333385,112.4442291,
0.1525000036,113.5167847,
0.1541666687,112.6477814,
0.1558333337,113.5898514,
0.1574999988,113.2958603,
0.1591666639,113.6678619,
0.1608333439,113.6444626,
0.162499994,112.3611145,
0.164166674,112.968811,
0.1658333242,112.1437531,
0.1675000042,112.5486755,
0.1691666692,112.9363174,
0.1708333343,112.7970123,
0.1724999994,113.1085205,
0.1741666645,112.5389023,
0.1758333296,113.6002884,
0.1775000095,112.8189163,
0.1791666597,113.583931,
0.1808333397,113.2550125,
0.1824999899,113.5617905,
0.1841666698,112.2426605,
0.1858333498,113.2213135,
0.1875,112.5999832,
0.18916668,114.4449081,
0.1908333302,112.7212982,
0.1925000101,113.1132736,
0.1941666752,113.4043121,
0.1958333403,113.4052505,
0.1975000054,112.9584351,
0.1991666704,112.1546173,
0.2008333355,113.5877228,
0.2025000155,113.4018173,
0.2041666657,113.5077362,
0.2058333457,112.2042007,
0.2074999958,112.5541916,
0.2091666758,112.1127472,
0.2108333409,112.2206116,
0.212500006,112.5650406,
0.214166671,113.1090393,
0.2158333361,113.5148087,
0.2175000012,113.339447,
0.2191666812,113.7153015,
0.2208333313,113.5489349,
0.2225000113,113.2373352,
0.2241666615,113.4884567,
0.2258333415,113.7119827,
0.2275000066,113.2003555,
0.2291666716,113.2934036,
0.2308333367,112.7791443,
0.2325000018,113.0889282,
0.2341666669,112.5690842,
0.2358333468,112.8238983,
0.237499997,112.8989258,
0.239166677,112.79776,
0.2408333272,112.0046921,
0.2425000072,112.6436539,
0.2441666722,113.149826,
0.2458333373,112.5889816,
0.2475000024,112.0232162,
0.2491666675,112.7945023,
0.2508333325,113.7024536,
0.2524999976,113.7263107,
0.2541666627,112.7133408,
0.2558333278,113.4575348,
0.2574999928,112.3971252,
0.2591666579,112.8006516,
0.2608333528,112.2015152,
0.2624999881,113.3444824,
0.264166683,112.559021,
0.2658333182,113.4367599,
0.2675000131,112.1315536,
0.2691666484,112.2458038,
0.2708333433,112.6307678,
0.2725000083,112.4675674,
0.2741666734,113.4752655,
0.2758333385,113.3463821,
0.2775000036,112.9218063,
0.2791666687,112.9277267,
0.2808333337,113.577774,
0.2824999988,112.8805695,
0.2841666937,112.9884415,
0.285833329,113.2960434,
0.287499994,112.8049316,
0.2891666591,113.2982101,
0.290833354,110.7772064,
0.2925000191,113.5613251,
0.2941666543,112.9575806,
0.2958333194,112.2408676,
0.2975000143,113.0725784,
0.2991666794,112.922493,
0.3008333445,112.7888184,
0.3024999797,113.7318573,
0.3041666746,113.3870544,
0.3058333397,112.654808,
0.3075000048,113.628212,
0.3091666996,111.7550735,
0.3108333349,113.4881973,
0.3125,112.2553101,
0.3141666651,112.6752167,
0.31583336,113.1244736,
0.317500025,112.6211395,
0.3191666603,113.4848557,
0.3208333254,112.8623428,
0.3225000203,112.5139694,
0.3241666853,113.4033737,
0.3258333504,112.2210236,
0.3274999857,113.6088257,
0.3291666806,113.4985352,
0.3308333457,113.2893677,
0.3325000107,112.8205414,
0.3341666758,114.1621628,
0.3358333409,113.2567749,
0.337500006,112.9177628,
0.339166671,111.5572281,
0.3408333361,112.3256607,
0.342500031,113.1406631,
0.3441666663,112.9480972,
0.3458333313,112.8998337,
0.3474999964,113.2600861,
0.3491666913,113.2069855,
0.3508333564,113.0257187,
0.3524999917,112.670311,
0.3541666567,112.5325623,
0.3558333516,113.3029327,
0.3575000167,111.7463303,
0.3591666818,112.0557022,
0.360833317,113.0860596,
0.3625000119,112.4605637,
0.364166677,112.0264435,
0.3658333421,112.7304764,
0.3675000072,112.6918106,
0.3691666722,113.1854019,
0.3708333373,112.6615906,
0.3725000024,113.8753433,
0.3741666675,113.1447525,
0.3758333623,113.1859589,
0.3774999976,112.4330673,
0.3791666627,112.6631927,
0.3808333278,112.915657,
0.3825000226,112.2630615,
0.3841666877,112.5365982,
0.385833323,111.9426804,
0.3874999881,112.247818,
0.389166683,112.7120514,
0.390833348,112.1086197,
0.3925000131,111.918602,
0.3941666484,113.4572754,
0.3958333433,113.4984818,
0.3975000083,112.7704544,
0.3991666734,112.5058746,
0.4008333385,113.3036728,
0.4025000036,112.2450256,
0.4041666687,112.1748657,
0.4058333337,112.7667923,
0.4074999988,113.2139359,
0.4091666937,113.5908279,
0.410833329,113.3094254,
0.412499994,112.9859543,
0.4141666591,113.6699066,
0.415833354,112.4137802,
0.4175000191,112.3167801,
0.4191666543,111.8574829,
0.4208333194,112.3669128,
0.4225000143,111.8637085,
0.4241666794,113.1885376,
0.4258333445,113.3420486,
0.4274999797,113.3182068,
0.4291666746,112.3921204,
0.4308333397,112.3696136,
0.4325000048,112.4278793,
0.4341666996,112.4810028,
0.4358333349,112.5094452,
0.4375,112.6557312,
0.4391666651,112.805542,
0.44083336,112.3787384,
0.442500025,112.7415619,
0.4441666603,112.2073288,
0.4458333254,112.8078232,
0.4475000203,112.1588669,
0.4491666853,112.7226563,
0.4508333504,112.7253418,
0.4524999857,112.9489212,
0.4541666806,112.4398804,
0.4558333457,113.3400421,
0.4575000107,111.866539,
0.4591666758,112.8426132,
0.4608333409,113.4602585,
0.462500006,112.0774307,
0.464166671,112.8582916,
0.4658333361,112.8803177,
0.467500031,112.5892715,
0.4691666663,113.309227,
0.4708333313,112.4153824,
0.4724999964,112.4752121,
0.4741666913,113.2582092,
0.4758333564,113.0683441,
0.4774999917,113.7982864,
0.4791666567,113.6367722,
0.4808333516,113.1434097,
0.4825000167,113.0543823,
0.4841666818,113.0472183,
0.485833317,112.746582,
0.4875000119,113.0162277,
0.489166677,112.957077,
0.4908333421,113.3980713,
0.4925000072,113.2023773,
0.4941666722,113.014061,
0.4958333373,112.3591537,
0.4975000024,113.0328445,
0.4991666675,112.7038345,
0.5008333325,111.9397659,
0.5024999976,112.3855286,
0.5041666627,113.6062088,
0.5058333278,112.4645309,
0.5074999928,112.5597153,
0.5091666579,112.4545441,
0.510833323,111.8455811,
0.5124999881,112.3118744,
0.5141666532,113.5092926,
0.5158333182,112.3882751,
0.5175000429,113.0313568,
0.5191666484,112.3901596,
0.5208333135,113.0155563,
0.5224999785,111.9195786,
0.5241667032,112.6274567,
0.5258333683,112.4279022,
0.5274999738,113.0516357,
0.5291666389,111.491539,
0.5308333635,113.1467972,
0.5325000286,112.5591125,
0.5341666341,112.8312759,
0.5358333588,111.7280045,
0.5375000238,112.3097076,
0.5391666889,111.8959579,
0.540833354,113.8072891,
0.5424999595,113.6649399,
0.5441666842,112.1659012,
0.5458333492,112.3218384,
0.5475000143,112.5400009,
0.5491666794,111.9771118,
0.5508333445,112.9461517,
0.5525000095,111.9884033,
0.5541666746,113.0282822,
0.5558333993,112.2151566,
0.5575000048,112.8390656,
0.5591666698,112.2751694,
0.5608333349,112.2843094,
0.5625,113.9320984,
0.5641667247,112.355072,
0.5658333302,112.6474152,
0.5674999952,113.4277725,
0.5691667199,111.8860092,
0.5708333254,113.1018219,
0.5725000501,112.7014618,
0.5741666555,112.863884,
0.5758333206,112.4200516,
0.5775000453,113.5233994,
0.5791666508,112.0782852,
0.5808333755,113.3259583,
0.5825000405,112.9887009,
0.584166646,113.8473969,
0.5858333707,112.4503708,
0.5874999762,112.2680283,
0.5891667008,113.3645782,
0.5908333659,112.3299866,
0.5924999714,112.4931412,
0.5941666961,113.4778671,
0.5958333611,113.4288101,
0.5975000262,112.4097366,
0.5991666913,112.6249161,
0.6008332968,112.3390427,
0.6025000215,113.1795349,
0.6041666865,113.71492,
0.6058333516,112.9063263,
0.6075000167,113.3829422,
0.6091666818,112.7236786,
0.6108333468,113.0069885,
0.6125000119,112.7339096,
0.614166677,113.5969391,
0.6158333421,112.2397232,
0.6175000072,114.2092438,
0.6191666722,113.1617508,
0.6208333373,112.3097687,
0.622500062,112.8141556,
0.6241666675,112.1821518,
0.6258333325,112.4840317,
0.6274999976,112.4872971,
0.6291666627,113.6635361,
0.6308333874,112.6737213,
0.6324999928,113.2183075,
0.6341666579,112.445488,
0.6358333826,113.2479858,
0.6374999881,113.203125,
0.6391667128,112.916153,
0.6408333182,113.0067902,
0.6424999833,112.8669128,
0.644166708,112.5485687,
0.6458333135,112.5251236,
0.6475000381,112.06427,
0.6491667032,111.8304901,
0.6508333087,112.5166168,
0.6525000334,112.4946442,
0.6541666389,111.9538574,
0.6558333635,112.685524,
0.6575000286,113.0950546,
0.6591666341,112.4110336,
0.6608333588,112.211647,
0.6625000238,113.1777802,
0.6641666889,112.4733887,
0.665833354,113.252739,
0.6674999595,112.3815765,
0.6691666842,111.7593613,
0.6708333492,112.8810196,
0.6725000143,113.5161972,
0.6741666794,112.610527,
0.6758333445,113.4227142,
0.6775000095,112.8535004,
0.6791666746,113.6395035,
0.6808333993,112.5949402,
0.6825000048,112.0340042,
0.6841666698,113.0486526,
0.6858333349,112.5143433,
0.6875,112.6728745,
0.6891667247,112.5917892,
0.6908333302,112.5834961,
0.6924999952,111.8994751,
0.6941667199,113.6174545,
0.6958333254,112.2263184,
0.6975000501,113.6864548,
0.6991666555,111.990181,
0.7008333206,112.2989502,
0.7025000453,112.2806625,
0.7041666508,112.365097,
0.7058333755,112.5629883,
0.7075000405,112.898201,
0.709166646,112.5995026,
0.7108333707,112.238472,
0.7124999762,112.261055,
0.7141667008,112.5132828,
0.7158333659,112.1406631,
0.7174999714,113.0729904,
0.7191666961,112.6534958,
0.7208333611,111.9737091,
0.7225000262,111.8196259,
0.7241666913,112.9402618,
0.7258332968,112.9999084,
0.7275000215,112.6189423,
0.7291666865,111.7732773,
0.7308333516,113.318634,
0.7325000167,112.569458,
0.7341666818,113.4401855,
0.7358333468,113.4532166,
0.7375000119,112.9978485,
0.739166677,111.4562454,
0.7408333421,112.8672485,
0.7425000072,112.1530533,
0.7441666722,112.5778046,
0.7458333373,113.1589432,
0.747500062,112.5344467,
0.7491666675,112.9154587,
0.7508333325,113.0415268,
0.7524999976,112.9117889,
0.7541666627,112.222435,
0.7558333874,112.8812256,
0.7574999928,112.3016434,
0.7591666579,113.3269043,
0.7608333826,112.5868912,
0.7624999881,112.3528976,
0.7641667128,112.4904709,
0.7658333182,112.4950943,
0.7674999833,112.3373184,
0.769166708,112.5913239,
0.7708333135,111.7529602,
0.7725000381,112.3394623,
0.7741667032,113.0619202,
0.7758333087,113.4377747,
0.7775000334,111.8888626,
0.7791666389,112.4072113,
0.7808333635,113.2379684,
0.7825000286,112.7680969,
0.7841666341,113.7037354,
0.7858333588,112.0374069,
0.7875000238,112.9114761,
0.7891666889,112.7167969,
0.790833354,112.3638077,
0.7924999595,112.6147766,
0.7941666842,112.8624268,
0.7958333492,113.3393707,
0.7975000143,113.1369553,
0.7991666794,113.5405045,
0.8008333445,113.0889206,
0.8025000095,112.8643875,
0.8041666746,112.6257706,
0.8058333993,112.6896973,
0.8075000048,112.7272949,
0.8091666698,112.5396423,
0.8108333349,112.1739349,
0.8125,112.4829712,
0.8141667247,112.5041199,
0.8158333302,111.8740158,
0.8174999952,112.0510864,
0.8191667199,112.5111771,
0.8208333254,112.4492111,
0.8225000501,112.674736,
0.8241666555,111.4466553,
0.8258333206,112.6727142,
0.8275000453,112.3149185,
0.8291666508,112.1631165,
0.8308333755,112.9101944,
0.8325000405,112.0114822,
0.834166646,112.5356827,
0.8358333707,112.4385376,
0.8374999762,111.9124756,
0.8391667008,113.4500809,
0.8408333659,113.0056152,
0.8424999714,113.1792908,
0.8441666961,112.4518051,
0.8458333611,113.1354675,
0.8475000262,112.0006714,
0.8491666913,112.4815521,
0.8508332968,112.0681534,
0.8525000215,113.0744171,
0.8541666865,112.5372009,
0.8558333516,112.1552734,
0.8575000167,112.660965,
0.8591666818,112.736496,
0.8608333468,112.2968979,
0.8625000119,112.7091522,
0.864166677,112.6499481,
0.8658333421,112.1974335,
0.8675000072,112.9550171,
0.8691666722,111.9673615,
0.8708333373,111.57164,
0.872500062,114.1423798,
0.8741666675,112.9458923,
0.8758333325,112.5595016,
0.8774999976,113.2600327,
0.8791666627,112.1849976,
0.8808333874,111.9235077,
0.8824999928,112.1722107,
0.8841666579,111.8508148,
0.8858333826,112.691597,
0.8874999881,112.3045425,
0.8891667128,112.9375458,
0.8908333182,112.0710907,
0.8924999833,112.6848907,
0.894166708,112.571701,
0.8958333135,112.457428,
0.8975000381,112.3128891,
0.8991667032,112.4856033,
0.9008333087,113.2593155,
0.9025000334,113.2343597,
0.9041666389,112.3420181,
0.9058333635,113.3008499,
0.9075000286,112.1895828,
0.9091666341,112.6235657,
0.9108333588,112.3716888,
0.9125000238,112.6533356,
0.9141666889,111.9427109,
0.915833354,112.7181702,
0.9174999595,112.3914642,
0.9191666842,113.4276428,
0.9208333492,112.6030731,
0.9225000143,112.8541031,
0.9241666794,113.2863541,
0.9258333445,112.7483063,
0.9275000095,112.859787,
0.9291666746,111.9480667,
0.9308333993,112.1959991,
0.9325000048,113.949379,
0.9341666698,111.3447342,
0.9358333349,112.1890182,
0.9375,112.902359,
0.9391667247,112.4126968,
0.9408333302,112.9172592,
0.9424999952,111.4013672,
0.9441667199,112.4314117,
0.9458333254,112.5662155,
0.9475000501,112.8361969,
0.9491666555,113.0922318,
0.9508333206,113.0741806,
0.9525000453,112.4182129,
0.9541666508,111.3416214,
0.9558333755,111.5280609,
0.9575000405,111.7014389,
0.959166646,113.1318436,
0.9608333707,112.9138565,
0.9624999762,113.2404022,
0.9641667008,111.2902145,
0.9658333659,113.4849625,
0.9674999714,111.9173584,
0.9691666961,112.6487808,
0.9708333611,113.4440613,
0.9725000262,112.5128784,
0.9741666913,112.9612961,
0.9758332968,113.2829132,
0.9775000215,112.8864594,
0.9791666865,112.4367905,
0.9808333516,112.8366852,
0.9825000167,111.852829,
0.9841666818,112.9738083,
0.9858333468,112.9009094,
0.9875000119,111.9539413,
0.989166677,113.2073288,
0.9908333421,112.7312393,
0.9925000072,111.9624176,
0.9941666722,113.4334183,
0.9958333373,112.5415268,
0.997500062,112.4424744,
0.9991666675,112.0012817,
1.000833273,112.5582504,
1.002500057,112.3252945,
1.004166722,112.034874,
1.005833387,112.7705612,
1.007500052,112.5364304,
1.009166598,112.3062973,
1.010833383,113.5884933,
1.012500048,112.5802536,
1.014166713,112.2227097,
1.015833378,111.6403732,
1.017500043,112.6886673,
1.019166708,112.9609833,
1.020833373,113.5207672,
1.022500038,112.4888916,
1.024166703,112.5149841,
1.025833368,112.1743469,
1.027500033,112.096611,
1.029166698,112.6640549,
1.030833364,112.5944366,
1.032500029,111.4456329,
1.034166694,112.9583511,
1.035833359,111.847374,
1.037500024,112.2441788,
1.039166689,112.3001556,
1.040833354,112.495903,
1.042500019,112.5651321,
1.044166684,112.4901352,
1.045833349,112.9465103,
1.047500014,112.4725037,
1.049166679,112.859726,
1.050833344,112.3807449,
1.05250001,112.3077698,
1.054166675,112.9512329,
1.05583334,112.4418564,
1.057500005,112.348175,
1.05916667,112.1215363,
1.060833335,112.5801849,
1.0625,113.5189819,
1.064166665,112.4569016,
1.06583333,113.2205048,
1.067499995,113.0170212,
1.06916666,111.881897,
1.070833325,112.7414627,
1.07249999,112.5306396,
1.074166775,112.7975693,
1.07583344,112.327652,
1.077499986,112.9739456,
1.079166651,112.4468079,
1.080833316,111.7752151,
1.0825001,112.9252014,
1.084166765,113.3434677,
1.085833311,112.7687759,
1.087499976,113.3476105,
1.089166641,111.8557205,
1.090833426,112.4751511,
1.092500091,112.1569824,
1.094166636,112.4354401,
1.095833302,112.1724014,
1.097499967,112.0166931,
1.099166751,113.0469971,
1.100833416,112.3803482,
1.102500081,113.3675156,
1.104166627,112.0481796,
1.105833292,113.0390396,
1.107500076,112.2142029,
1.109166741,112.7346725,
1.110833406,112.782402,
1.112499952,113.1138382,
1.114166617,112.1092911,
1.115833402,112.6218109,
1.117500067,113.2265625,
1.119166732,111.5787735,
1.120833278,111.3739014,
1.122499943,112.3477097,
1.124166727,112.760582,
1.125833392,112.060112,
1.127500057,112.9034271,
1.129166722,113.6235733,
1.130833268,112.6561127,
1.132500052,113.2444611,
1.134166718,113.0906296,
1.135833383,112.0415115,
1.137500048,111.6773071,
1.139166594,112.2595749,
1.140833378,111.8952179,
1.142500043,112.1766434,
1.144166708,112.9642105,
1.145833373,112.2718887,
1.147499919,112.3720779,
1.149166703,112.8735504,
1.150833368,113.455101,
1.152500033,113.2648087,
1.154166698,112.7067795,
1.155833364,112.6804504,
1.157500029,112.1571045,
1.159166694,112.437294,
1.160833359,111.8846512,
1.162500024,112.8903503,
1.164166689,111.8459625,
1.165833354,113.0405884,
1.167500019,111.9324341,
1.169166684,113.1665878,
1.170833349,113.188385,
1.172500014,112.7886276,
1.174166799,111.8265991,
1.175833344,111.2970047,
1.17750001,111.7827911,
1.179166675,113.7505646,
1.18083334,111.9570313,
1.182500124,112.430481,
1.18416667,112.271286,
1.185833335,112.7243271,
1.1875,112.5939255,
1.189166665,111.529892,
1.190833449,112.3310013,
1.192499995,111.7434235,
1.19416666,111.6633682,
1.195833325,112.2484283,
1.19749999,112.6606903,
1.199166775,112.6259232,
1.20083344,112.8582764,
1.202499986,113.9359741,
1.204166651,112.1463547,
1.205833316,112.4048386,
1.2075001,112.9577713,
1.209166765,112.3024368,
1.210833311,113.3671417,
1.212499976,113.0618973,
1.214166641,112.5503159,
1.215833426,112.2997208,
1.217500091,111.9909668,
1.219166636,113.239006,
1.220833302,111.8855438,
1.222499967,112.4794998,
1.224166751,112.0020142,
1.225833416,111.7584915,
1.227500081,113.2488556,
1.229166627,113.5378571,
1.230833292,112.224556,
1.232500076,113.6937408,
1.234166741,112.5188293,
1.235833406,111.9860916,
1.237499952,112.7740707,
1.239166617,112.538887,
1.240833402,113.4459686,
1.242500067,111.8180771,
1.244166732,113.4461899,
1.245833278,112.3361816,
1.247499943,112.6424484,
1.249166727,112.0569,
1.250833392,112.7633667,
1.252500057,112.9272842,
1.254166722,112.2093201,
1.255833268,112.0987778,
1.257500052,112.9321976,
1.259166718,113.093811,
1.260833383,112.303009,
1.262500048,113.3105164,
1.264166594,111.5339813,
1.265833378,112.5739212,
1.267500043,112.4899979,
1.269166708,112.0930481,
1.270833373,113.8971786,
1.272499919,112.7067947,
1.274166703,113.4636993,
1.275833368,112.2369843,
1.277500033,112.4741745,
1.279166698,113.3646317,
1.280833364,108.0811234,
1.282500029,102.8457108,
1.284166694,93.06827545,
1.285833359,90.20185852,
1.287500024,85.9643631,
1.289166689,105.4525375,
1.290833354,92.936409,
1.292500019,100.5852356,
1.294166684,105.4630432,
1.295833349,107.2734299,
1.297500014,104.2470551,
1.299166799,107.8604355,
1.300833344,103.5333405,
1.30250001,106.3717957,
1.304166675,98.55162048,
1.30583334,97.02716827,
1.307500124,94.48339844,
1.30916667,104.6871262,
1.310833335,105.5388718,
1.3125,106.6429901,
1.314166665,105.3967438,
1.315833449,105.2157364,
1.317499995,104.2051468,
1.31916666,104.7085571,
1.320833325,104.4545517,
1.32249999,105.6077194,
1.324166775,104.1890335,
1.32583344,103.1549225,
1.327499986,103.1966705,
1.329166651,103.7586212,
1.330833316,103.016861,
1.3325001,102.7823105,
1.334166765,102.4837646,
1.335833311,101.9240036,
1.337499976,101.7411118,
1.339166641,102.0200195,
1.340833426,100.6679459,
1.342500091,101.9028244,
1.344166636,99.4128418,
1.345833302,100.5711212,
1.347499967,99.44115448,
1.349166751,100.0556793,
1.350833416,100.4124908,
1.352500081,100.0642014,
1.354166627,98.85733795,
1.355833292,99.37051392,
1.357500076,99.24403381,
1.359166741,99.05025482,
1.360833406,97.82749939,
1.362499952,98.82997894,
1.364166617,98.82910919,
1.365833402,98.85356903,
1.367500067,97.77046204,
1.369166732,98.97240448,
1.370833278,97.43239594,
1.372499943,97.46994019,
1.374166727,98.13297272,
1.375833392,98.0353241,
1.377500057,99.06523895,
1.379166722,97.42475891,
1.380833268,97.95153809,
1.382500052,96.8610611,
1.384166718,96.0835495,
1.385833383,96.15501404,
1.387500048,95.31743622,
1.389166594,96.77015686,
1.390833378,96.12453461,
1.392500043,96.31269836,
1.394166708,96.1883316,
1.395833373,96.1927948,
1.397499919,95.98949432,
1.399166703,94.71427155,
1.400833368,94.99168396,
1.402500033,95.51998901,
1.404166698,94.69113159,
1.405833364,95.42353058,
1.407500029,94.99204254,
1.409166694,95.25080872,
1.410833359,95.40583801,
1.412500024,95.15323639,
1.414166689,94.51564789,
1.415833354,94.69774628,
1.417500019,94.62312317,
1.419166684,93.48337555,
1.420833349,94.57218933,
1.422500014,94.82593536,
1.424166799,93.9832077,
1.425833344,93.86408234,
1.42750001,93.87773895,
1.429166675,93.81105042,
1.43083334,93.99816132,
1.432500124,94.79668427,
1.43416667,94.41986084,
1.435833335,94.38558197,
1.4375,93.15842438,
1.439166665,93.65112305,
1.440833449,92.05672455,
1.442499995,92.79131317,
1.44416666,93.50465393,
1.445833325,93.53318024,
1.44749999,93.9427948,
1.449166775,92.43120575,
1.45083344,92.45459747,
1.452499986,92.59095001,
1.454166651,92.97878265,
1.455833316,91.80870819,
1.4575001,92.14849091,
1.459166765,93.22647858,
1.460833311,93.26028442,
1.462499976,93.20376587,
1.464166641,92.40567017,
1.465833426,92.03671265,
1.467500091,92.50354767,
1.469166636,92.61709595,
1.470833302,91.59881592,
1.472499967,92.0843811,
1.474166751,91.83958435,
1.475833416,91.64650726,
1.477500081,92.52828217,
1.479166627,92.26036835,
1.480833292,91.35947418,
1.482500076,91.24822998,
1.484166741,91.78372192,
1.485833406,91.64138031,
1.487499952,90.90691376,
1.489166617,91.24874115,
1.490833402,91.05849457,
1.492500067,91.29264069,
1.494166732,90.63734436,
1.495833278,91.948349,
1.497499943,91.51506042,
1.499166727,91.17650604,
1.500833392,90.63865662,
1.502500057,90.63471222,
1.504166722,91.03478241,
1.505833268,89.96648407,
1.507500052,90.97155762,
1.509166718,91.04348755,
1.510833383,90.5157547,
1.512500048,89.46700287,
1.514166594,91.48881531,
1.515833378,91.11740875,
1.517500043,90.32837677,
1.519166708,90.61614227,
1.520833373,90.14884949,
1.522499919,90.11903381,
1.524166703,90.43676758,
1.525833368,91.26235199,
1.527500033,91.4037323,
1.529166698,89.97795105,
1.530833364,89.835289,
1.532500029,90.52828979,
1.534166694,90.39273834,
1.535833359,89.88169861,
1.537500024,88.94933319,
1.539166689,90.26288605,
1.540833354,90.29972839,
1.542500019,89.99464417,
1.544166684,89.50521088,
1.545833349,89.11972809,
1.547500014,89.94818878,
1.549166799,89.8188324,
1.550833344,89.93757629,
1.55250001,90.01334381,
1.554166675,90.04885101,
1.55583334,90.21187592,
1.557500124,89.75964355,
1.55916667,89.47399902,
1.560833335,90.12670898,
1.5625,89.23899841,
1.564166665,90.22924042,
1.565833449,89.0635376,
1.567499995,88.12798309,
1.56916666,89.07901001,
1.570833325,89.53173065,
1.57249999,88.99243927,
1.574166775,89.91596985,
1.57583344,89.56871796,
1.577499986,88.75802612,
1.579166651,89.05780792,
1.580833316,89.18521118,
1.5825001,88.70100403,
1.584166765,88.92914581,
1.585833311,89.59571838,
1.587499976,89.0439682,
1.589166641,89.09640503,
1.590833426,88.75771332,
1.592500091,90.03630066,
1.594166636,88.22569275,
1.595833302,88.40162659,
1.597499967,88.32387543,
1.599166751,88.8693161,
1.600833416,88.32390594,
1.602500081,89.09863281,
1.604166627,88.78432465,
1.605833292,88.53594208,
1.607500076,88.87516785,
1.609166741,89.10927582,
1.610833406,88.04533386,
1.612499952,88.27321625,
1.614166617,88.81970215,
1.615833402,87.79051208,
1.617500067,89.31928253,
1.619166732,87.40040588,
1.620833278,89.08956146,
1.622499943,88.18204498,
1.624166727,87.83847809,
1.625833392,87.55366516,
1.627500057,87.71646881,
1.629166722,88.00978851,
1.630833268,88.2640152,
1.632500052,88.05726624,
1.634166718,88.45422363,
1.635833383,88.66170502,
1.637500048,88.82176208,
1.639166594,87.75943756,
1.640833378,87.93963623,
1.642500043,87.5816803,
1.644166708,87.93013763,
1.645833373,88.26927185,
1.647499919,88.78364563,
1.649166703,87.76519775,
1.650833368,88.48564148,
1.652500033,87.91686249,
1.654166698,88.38467407,
1.655833364,89.01612854,
1.657500029,87.68021393,
1.659166694,87.27479553,
1.660833359,88.22504425,
1.662500024,88.02572632,
1.664166689,87.69960785,
1.665833354,87.36595154,
1.667500019,89.04151917,
1.669166684,87.50413513,
1.670833349,87.72562408,
1.672500014,88.27523804,
1.674166799,87.33985901,
1.675833344,87.86423492,
1.67750001,87.43650818,
1.679166675,86.68486023,
1.68083334,88.41236115,
1.682500124,88.08255768,
1.68416667,87.53709412,
1.685833335,87.28425598,
1.6875,87.10869598,
1.689166665,86.05577087,
1.690833449,86.95600128,
1.692499995,88.13600159,
1.69416666,88.87993622,
1.695833325,87.37893677,
1.69749999,87.58472443,
1.699166775,86.94081116,
1.70083344,87.08560181,
1.702499986,87.84133148,
1.704166651,86.94005585,
1.705833316,87.94276428,
1.7075001,87.34503174,
1.709166765,87.62812042,
1.710833311,87.02655792,
1.712499976,87.5621109,
1.714166641,87.26622009,
1.715833426,86.72942352,
1.717500091,86.91536713,
1.719166636,86.98371887,
1.720833302,88.32926178,
1.722499967,87.08306885,
1.724166751,87.32330322,
1.725833416,86.74304199,
1.727500081,87.10330963,
1.729166627,87.41369629,
1.730833292,86.712677,
1.732500076,87.22756195,
1.734166741,86.99638367,
1.735833406,86.00961304,
1.737499952,88.15022278,
1.739166617,87.52534485,
1.740833402,86.59933472,
1.742500067,87.29466248,
1.744166732,86.71898651,
1.745833278,86.50579071,
1.747499943,86.57814789,
1.749166727,86.9785614,
1.750833392,87.22211456,
1.752500057,87.0852356,
1.754166722,86.81903076,
1.755833268,87.07350922,
1.757500052,86.65625763,
1.759166718,86.51216125,
1.760833383,86.15410614,
1.762500048,86.59804535,
1.764166594,86.51301575,
1.765833378,87.0348587,
1.767500043,86.38667297,
1.769166708,86.74909973,
1.770833373,86.66156006,
1.772499919,87.21510315,
1.774166703,86.07841492,
1.775833368,87.30291748,
1.777500033,86.7783432,
1.779166698,86.7652359,
1.780833364,86.80638123,
1.782500029,86.47116089,
1.784166694,85.82894897,
1.785833359,85.98590088,
1.787500024,86.3923111,
1.789166689,86.73576355,
1.790833354,85.97138214,
1.792500019,86.16719818,
1.794166684,86.5552063,
1.795833349,87.75280762,
1.797500014,85.86560822,
1.799166799,86.73566437,
1.800833344,87.17572021,
1.80250001,85.73933411,
1.804166675,86.07840729,
1.80583334,86.59243011,
1.807500124,86.00572205,
1.80916667,86.69403076,
1.810833335,86.66891479,
1.8125,87.01602173,
1.814166665,86.56345367,
1.815833449,85.47602844,
1.817499995,85.40901947,
1.81916666,86.56025696,
1.820833325,85.67075348,
1.82249999,86.15974426,
1.824166775,86.00534058,
1.82583344,86.55358124,
1.827499986,85.8352356,
1.829166651,86.6230545,
1.830833316,86.42460632,
1.8325001,86.4757843,
1.834166765,86.66837311,
1.835833311,86.17665863,
1.837499976,86.03437805,
1.839166641,85.5555954,
1.840833426,85.95121002,
1.842500091,85.29276276,
1.844166636,85.87407684,
1.845833302,85.91873932,
1.847499967,85.24228668,
1.849166751,85.57485199,
1.850833416,85.78272247,
1.852500081,85.21073914,
1.854166627,86.47265625,
1.855833292,85.67326355,
1.857500076,85.11536407,
1.859166741,85.10133362,
1.860833406,85.55130768,
1.862499952,85.54146576,
1.864166617,85.51608276,
1.865833402,85.70018768,
1.867500067,85.59024811,
1.869166732,86.1975708,
1.870833278,85.45623779,
1.872499943,86.11581421,
1.874166727,85.90329742,
1.875833392,85.88613129,
1.877500057,86.0990448,
1.879166722,86.23900604,
1.880833268,85.19197845,
1.882500052,86.26538849,
1.884166718,85.56754303,
1.885833383,85.52674866,
1.887500048,85.22171021,
1.889166594,85.78907013,
1.890833378,85.93546295,
1.892500043,85.00396729,
1.894166708,85.97691345,
1.895833373,85.20585632,
1.897499919,84.51800537,
1.899166703,85.36447906,
1.900833368,85.85660553,
1.902500033,86.07200623,
1.904166698,86.0187149,
1.905833364,85.1651535,
1.907500029,85.89105988,
1.909166694,85.75260162,
1.910833359,85.5628891,
1.912500024,86.1427002,
1.914166689,85.26275635,
1.915833354,85.54091644,
1.917500019,85.60159302,
1.919166684,86.56604004,
1.920833349,85.00251007,
1.922500014,85.26617432,
1.924166799,85.39658356,
1.925833344,85.35800934,
1.92750001,85.18784332,
1.929166675,85.44219208,
1.93083334,85.62978363,
1.932500124,86.02449036,
1.93416667,84.94552612,
1.935833335,86.64296722,
1.9375,85.76035309,
1.939166665,85.35964966,
1.940833449,85.6171875,
1.942499995,85.11441803,
1.94416666,85.50199127,
1.945833325,85.14453125,
1.94749999,85.83526611,
1.949166775,85.92246246,
1.95083344,85.02770233,
1.952499986,85.09047699,
1.954166651,84.83481598,
1.955833316,86.8841629,
1.9575001,85.2961731,
1.959166765,85.53785706,
1.960833311,85.65709686,
1.962499976,85.32513428,
1.964166641,86.05670929,
1.965833426,85.66101837,
1.967500091,85.8312149,
1.969166636,84.85887146,
1.970833302,85.18492126,
1.972499967,85.05444336,
1.974166751,85.91632843,
1.975833416,85.58711243,
1.977500081,85.67514038,
1.979166627,84.80986023,
1.980833292,84.87240601,
1.982500076,85.19107819,
1.984166741,85.10192871,
1.985833406,84.78122711,
1.987499952,85.71774292,
1.989166617,86.05557251,
1.990833402,84.8928299,
1.992500067,84.90925598,
1.994166732,85.56980896,
1.995833278,85.55195618,
1.997499943,85.15666199,
1.999166727,85.6568985,
2.000833273,85.16699219,
2.002500057,85.14821625,
2.004166603,85.22744751,
2.005833387,85.60952759,
2.007500172,85.38918304,
2.009166718,84.75667572,
2.010833263,85.75492859,
2.012500048,84.4291687,
2.014166594,85.44900513,
2.015833378,85.33834839,
2.017500162,85.55683899,
2.019166708,85.59540558,
2.020833254,84.50854492,
2.022500038,84.92003632,
2.024166822,85.6425705,
2.025833368,84.86157227,
2.027499914,85.62158203,
2.029166698,84.62417603,
2.030833244,85.6958313,
2.032500029,85.29711151,
2.034166813,85.1986084,
2.035833359,84.95001221,
2.037499905,85.36592865,
2.039166689,83.88188934,
2.040833473,85.08460236,
2.042500019,84.74626923,
2.044166803,84.84898376,
2.045833349,83.90419006,
2.047499895,85.14002991,
2.049166679,85.46101379,
2.050833464,85.11538696,
2.05250001,84.94506073,
2.054166555,85.14382935,
2.05583334,85.72299957,
2.057500124,85.20040894,
2.05916667,85.65642548,
2.060833454,84.14443207,
2.0625,85.17247009,
2.064166546,85.08150482,
2.06583333,85.03975677,
2.067500114,85.11387634,
2.06916666,85.15619659,
2.070833445,86.20954895,
2.07249999,84.93068695,
2.074166775,84.53636932,
2.075833321,84.69551849,
2.077500105,84.3624115,
2.079166651,85.29569244,
2.080833197,85.51898956,
2.082499981,84.73648834,
2.084166765,85.72164154,
2.085833311,85.02252197,
2.087500095,85.27696991,
2.089166641,84.77721405,
2.090833426,84.52180481,
2.092499971,84.92058563,
2.094166756,84.65268707,
2.095833302,84.78689575,
2.097500086,84.7516098,
2.099166632,84.07211304,
2.100833416,84.79550934,
2.102499962,85.10385132,
2.104166746,84.92401886,
2.105833292,84.52278137,
2.107500076,85.03621674,
2.109166622,83.18071747,
2.110833406,84.4845047,
2.112499952,84.2742157,
2.114166737,83.77864075,
2.115833521,84.19243622,
2.117500067,84.81373596,
2.119166613,85.42655945,
2.120833397,84.69490051,
2.122499943,85.02033997,
2.124166727,84.47009277,
2.125833273,85.37802124,
2.127500057,84.76630402,
2.129166603,84.56254578,
2.130833387,84.30584717,
2.132500172,85.57064819,
2.134166718,83.99336243,
2.135833502,84.60110474,
2.137500048,84.38488007,
2.139166832,83.93756104,
2.140833378,84.02544403,
2.142500162,84.65496063,
2.144166708,83.4365921,
2.145833254,84.38713837,
2.147500038,84.9823761,
2.149166584,84.09011841,
2.150833368,85.08852386,
2.152500153,85.15635681,
2.154166698,84.65316772,
2.155833483,84.32316589,
2.157500029,84.72948456,
2.159166813,84.04151154,
2.160833597,84.89680481,
2.162499905,85.04090118,
2.164166689,84.92961121,
2.165833235,84.80058289,
2.167500019,84.29107666,
2.169166803,84.39116669,
2.170833349,84.56325531,
2.172500134,84.57053375,
2.174166679,84.64539337,
2.175833464,84.2934494,
2.177500248,84.76160431,
2.179166555,84.53718567,
2.18083334,84.33678436,
2.182499886,86.15459442,
2.18416667,85.1859436,
2.185833454,84.20969391,
2.1875,84.20205688,
2.189166784,84.30207062,
2.19083333,84.54917145,
2.192500114,85.42762756,
2.194166899,83.63708496,
2.195833445,85.63244629,
2.19749999,84.70677948,
2.199166536,84.82927704,
2.200833321,85.43553925,
2.202500105,84.40426636,
2.204166651,85.15757751,
2.205833435,84.07042694,
2.207499981,84.50492859,
2.209166765,84.58703613,
2.210833549,84.57540131,
2.212500095,84.2507782,
2.21416688,84.31209564,
2.215833187,84.09603119,
2.217499971,83.693573,
2.219166756,84.08795929,
2.220833302,84.64016724,
2.222500086,84.26122284,
2.224166632,83.68178558,
2.225833416,84.84440613,
2.2275002,83.80506897,
2.229166746,84.68293762,
2.23083353,84.3901062,
2.232499838,84.2334671,
2.234166622,83.59349823,
2.235833406,83.00637817,
2.237499952,83.90498352,
2.239166737,84.18954468,
2.240833282,84.49694824,
2.242500067,84.60787964,
2.244166851,84.1537323,
2.245833397,85.51873779,
2.247500181,84.64629364,
2.249166727,84.73872375,
2.250833273,84.1724472,
2.252500057,85.09716797,
2.254166603,84.89294434,
2.255833387,84.07042694,
2.257499933,83.93969727,
2.259166718,84.52604675,
2.260833502,83.0568161,
2.262500048,85.33260345,
2.264166832,84.72557068,
2.265833378,84.00013733,
2.267500162,84.39980316,
2.269166708,85.01878357,
2.270833254,84.73334503,
2.272500038,84.66741943,
2.274166584,83.64155579,
2.275833368,84.09098053,
2.277500153,83.98322296,
2.279166698,84.19602203,
2.280833483,84.33598328,
2.282500029,84.23657227,
2.284166813,84.59157562,
2.285833597,84.70333099,
2.287499905,84.45923615,
2.289166689,83.94249725,
2.290833235,84.61446381,
2.292500019,83.98120117,
2.294166803,84.17984009,
2.295833349,83.8261795,
2.297500134,84.64971924,
2.299166679,83.57550812,
2.300833464,85.22970581,
2.302500248,84.4842453,
2.304166555,84.4703064,
2.30583334,83.85120392,
2.307499886,84.96997833,
2.30916667,84.08577728,
2.310833454,83.92014313,
2.3125,84.70215607,
2.314166784,84.7277298,
2.31583333,84.37903595,
2.317500114,84.56024933,
2.319166899,84.77985382,
2.320833445,83.76589966,
2.32249999,84.41600037,
2.324166536,84.96592712,
2.325833321,84.19018555,
2.327500105,85.08876038,
2.329166651,83.74940491,
2.330833435,85.37368774,
2.332499981,83.52933502,
2.334166765,84.53936005,
2.335833549,84.29178619,
2.337500095,84.58840179,
2.33916688,84.55070496,
2.340833187,83.5923996,
2.342499971,84.16010284,
2.344166756,84.34552765,
2.345833302,83.7939682,
2.347500086,83.58890533,
2.349166632,83.51966858,
2.350833416,83.91942596,
2.3525002,84.50971985,
2.354166746,84.22241974,
2.35583353,84.05505371,
2.357499838,83.94947815,
2.359166622,83.15276337,
2.360833406,84.76161194,
2.362499952,83.48542023,
2.364166737,84.72042847,
2.365833282,84.5327301,
2.367500067,84.87973022,
2.369166851,84.56921387,
2.370833397,83.99693298,
2.372500181,83.86859894,
2.374166727,83.96128082,
2.375833273,84.72079468,
2.377500057,82.73849487,
2.379166603,84.28591919,
2.380833387,83.3189621,
2.382499933,83.08094788,
2.384166718,84.50720978,
2.385833502,84.08417511,
2.387500048,84.15830231,
2.389166832,84.2516861,
2.390833378,84.21724701,
2.392500162,85.09794617,
2.394166708,83.84078217,
2.395833254,84.83894348,
2.397500038,83.30986786,
2.399166584,83.63715363,
2.400833368,83.43619537,
2.402500153,83.48233795,
2.404166698,83.9206543,
2.405833483,84.66132355,
2.407500029,84.35206604,
2.409166813,84.43320465,
2.410833597,84.53453827,
2.412499905,84.17147064,
2.414166689,85.13169861,
2.415833235,83.53278351,
2.417500019,83.7743454,
2.419166803,83.76843262,
2.420833349,83.96154785,
2.422500134,84.62875366,
2.424166679,84.53794861,
2.425833464,84.61370087,
2.427500248,84.57743835,
2.429166555,84.23895264,
2.43083334,83.21160126,
2.432499886,83.74353027,
2.43416667,84.06302643,
2.435833454,84.38816071,
2.4375,84.12922668,
2.439166784,84.00669098,
2.44083333,84.28336334,
2.442500114,84.0794754,
2.444166899,83.6776886,
2.445833445,84.17126465,
2.44749999,84.48455048,
2.449166536,84.37699127,
2.450833321,83.90416718,
2.452500105,83.79554749,
2.454166651,84.64248657,
2.455833435,84.22841644,
2.457499981,84.06928253,
2.459166765,83.27371979,
2.460833549,83.81140137,
2.462500095,83.29477692,
2.46416688,83.5952301,
2.465833187,84.44438934,
2.467499971,84.54656982,
2.469166756,84.31754303,
2.470833302,83.97211456,
2.472500086,84.68180084,
2.474166632,83.89071655,
2.475833416,83.94329834,
2.4775002,84.23239136,
2.479166746,83.87307739,
2.48083353,83.97579193,
2.482499838,83.72950745,
2.484166622,84.56651306,
2.485833406,84.0371933,
2.487499952,84.96640778,
2.489166737,83.91928101,
2.490833282,83.42059326,
2.492500067,84.70983124,
2.494166851,83.93694305,
2.495833397,83.94299316,
2.497500181,83.87612915,
2.499166727,83.41635895,
2.500833273,83.50762939,
2.502500057,84.28153992,
2.504166603,83.82791901,
2.505833387,83.58357239,
2.507499933,83.80603027,
2.509166718,83.6682663,
2.510833502,83.92102051,
2.512500048,84.23456573,
2.514166832,83.40227509,
2.515833378,83.18057251,
2.517500162,84.04632568,
2.519166708,83.79543304,
2.520833254,83.11463165,
2.522500038,82.96766663,
2.524166584,83.85638428,
2.525833368,84.93106079,
2.527500153,83.90592194,
2.529166698,83.53020477,
2.530833483,84.35838318,
2.532500029,84.55285645,
2.534166813,83.55702209,
2.535833597,84.25447845,
2.537499905,84.06707764,
2.539166689,84.39862823,
2.540833235,85.1760025,
2.542500019,84.90115356,
2.544166803,84.84996033,
2.545833349,84.47637939,
2.547500134,84.0925827,
2.549166679,83.85840607,
2.550833464,84.14316559,
2.552500248,84.44342804,
2.554166555,83.63513947,
2.55583334,83.90180969,
2.557499886,83.46253967,
2.55916667,83.63092804,
2.560833454,83.61209869,
2.5625,83.53322601,
2.564166784,83.28042603,
2.56583333,83.42205048,
2.567500114,83.98607635,
2.569166899,83.45763397,
2.570833445,84.27576447,
2.57249999,83.66004944,
2.574166536,83.77109528,
2.575833321,82.4680481,
2.577500105,84.14414978,
2.579166651,84.36242676,
2.580833435,83.94988251,
2.582499981,83.69013214,
2.584166765,84.4516449,
2.585833549,83.29114532,
2.587500095,83.52363586,
2.58916688,83.79930878,
2.590833187,83.10243988,
2.592499971,83.25117493,
2.594166756,83.74726868,
2.595833302,83.13437653,
2.597500086,83.76359558,
2.599166632,84.5107193,
2.600833416,84.68039703,
2.6025002,84.1162796,
2.604166746,84.48892975,
2.60583353,83.44376373,
2.607499838,82.91658783,
2.609166622,83.76515961,
2.610833406,83.47563934,
2.612499952,84.3416748,
2.614166737,83.82540894,
2.615833282,83.90627289,
2.617500067,83.06564331,
2.619166851,83.34522247,
2.620833397,84.51872253,
2.622500181,83.36623383,
2.624166727,83.75772095,
2.625833273,83.85638428,
2.627500057,83.93451691,
2.629166603,83.24327087,
2.630833387,83.12812042,
2.632499933,84.38632202,
2.634166718,83.15665436,
2.635833502,83.85276794,
2.637500048,84.50100708,
2.639166832,83.67285156,
2.640833378,83.6309967,
2.642500162,84.36193085,
2.644166708,83.98305511,
2.645833254,83.88481903,
2.647500038,84.25357819,
2.649166584,83.85830688,
2.650833368,83.75547028,
2.652500153,84.5506897,
2.654166698,85.50120544,
2.655833483,84.3875351,
2.657500029,83.00447083,
2.659166813,83.41049957,
2.660833597,83.0088501,
2.662499905,83.12420654,
2.664166689,83.42434692,
2.665833235,83.54069519,
2.667500019,84.05065918,
2.669166803,84.44360352,
2.670833349,83.98162079,
2.672500134,83.66702271,
2.674166679,83.90900421,
2.675833464,84.35795593,
2.677500248,83.79634094,
2.679166555,83.93005371,
2.68083334,83.90370941,
2.682499886,83.98842621,
2.68416667,83.49088287,
2.685833454,83.34525299,
2.6875,84.22795868,
2.689166784,84.48132324,
2.69083333,83.67172241,
2.692500114,83.80220032,
2.694166899,82.99346161,
2.695833445,84.46600342,
2.69749999,83.28857422,
2.699166536,83.67005157,
2.700833321,83.47693634,
2.702500105,83.55083466,
2.704166651,83.4408493,
2.705833435,84.2901001,
2.707499981,84.31394958,
2.709166765,84.01216888,
2.710833549,84.11508179,
2.712500095,83.99057007,
2.71416688,84.40840149,
2.715833187,83.86727905,
2.717499971,84.10807037,
2.719166756,83.21367645,
2.720833302,84.32846069,
2.722500086,83.13573456,
2.724166632,83.73029327,
2.725833416,83.33929443,
2.7275002,82.81691742,
2.729166746,83.22522736,
2.73083353,84.17276001,
2.732499838,82.78353882,
2.734166622,83.561203,
2.735833406,82.56600189,
2.737499952,83.08646393,
2.739166737,83.82394409,
2.740833282,83.63588715,
2.742500067,83.45238495,
2.744166851,83.72776794,
2.745833397,84.6650238,
2.747500181,83.21231079,
2.749166727,83.67144012,
2.750833273,83.05735016,
2.752500057,83.36382294,
2.754166603,84.17919922,
2.755833387,84.32135773,
2.757499933,83.14042664,
2.759166718,84.20720673,
2.760833502,83.78598785,
2.762500048,84.46408844,
2.764166832,83.72420502,
2.765833378,83.3358078,
2.767500162,83.40651703,
2.769166708,83.61952209,
2.770833254,84.45843506,
2.772500038,82.64784241,
2.774166584,83.21450806,
2.775833368,83.81044769,
2.777500153,83.76885223,
2.779166698,83.89663696,
2.780833483,84.09570313,
2.782500029,83.56406403,
2.784166813,83.38569641,
2.785833597,84.00757599,
2.787499905,83.61054993,
2.789166689,84.10140991,
2.790833235,85.04652405,
2.792500019,83.73442078,
2.794166803,83.33235168,
2.795833349,83.91278076,
2.797500134,83.56626129,
2.799166679,83.52716064,
2.800833464,83.41225433,
2.802500248,83.88085938,
2.804166555,84.31768799,
2.80583334,83.54549408,
2.807499886,83.8321228,
2.80916667,84.63273621,
2.810833454,83.60614777,
2.8125,83.15885925,
2.814166784,84.32591248,
2.81583333,83.56952667,
2.817500114,82.51999664,
2.819166899,83.7327652,
2.820833445,84.18573761,
2.82249999,83.77323151,
2.824166536,84.71473694,
2.825833321,83.63612366,
2.827500105,83.66831207,
2.829166651,83.3163681,
2.830833435,84.09885406,
2.832499981,83.68382263,
2.834166765,84.68362427,
2.835833549,83.78327179,
2.837500095,84.18740845,
2.83916688,84.09636688,
2.840833187,83.51118469,
2.842499971,83.31757355,
2.844166756,83.84074402,
2.845833302,83.36424255,
2.847500086,83.25821686,
2.849166632,83.90844727,
2.850833416,83.73331451,
2.8525002,84.42163849,
2.854166746,83.13330078,
2.85583353,83.84283447,
2.857499838,84.14826965,
2.859166622,83.20305634,
2.860833406,83.23048401,
2.862499952,83.503479,
2.864166737,84.19961548,
2.865833282,84.7223587,
2.867500067,84.71916199,
2.869166851,83.35909271,
2.870833397,82.95332336,
2.872500181,82.73978424,
2.874166727,82.99546051,
2.875833273,83.45210266,
2.877500057,83.36013794,
2.879166603,83.72557068,
2.880833387,83.64561462,
2.882499933,83.83599854,
2.884166718,83.35692596,
2.885833502,84.09551239,
2.887500048,84.35045624,
2.889166832,83.595047,
2.890833378,82.81743622,
2.892500162,83.58831024,
2.894166708,83.57382202,
2.895833254,84.30245972,
2.897500038,83.98343658,
2.899166584,83.41068268,
2.900833368,83.96299744,
2.902500153,83.26690674,
2.904166698,83.42902374,
2.905833483,83.18475342,
2.907500029,83.58721924,
2.909166813,83.56549835,
2.910833597,83.14061737,
2.912499905,83.68188477,
2.914166689,83.56652069,
2.915833235,83.07090759,
2.917500019,83.56968689,
2.919166803,83.16616058,
2.920833349,83.21204376,
2.922500134,84.5002594,
2.924166679,83.77849579,
2.925833464,83.79285431,
2.927500248,83.59116364,
2.929166555,83.49130249,
2.93083334,83.43364716,
2.932499886,83.41645813,
2.93416667,83.10385132,
2.935833454,83.41662598,
2.9375,83.90818787,
2.939166784,84.36654663,
2.94083333,83.43989563,
2.942500114,83.2168045,
2.944166899,83.45401001,
2.945833445,83.42727661,
2.94749999,83.81620789,
2.949166536,83.60720825,
2.950833321,83.47536469,
2.952500105,83.80986023,
2.954166651,82.74993896,
2.955833435,83.93268585,
2.957499981,83.95021057,
2.959166765,82.5628891,
2.960833549,83.31468201,
2.962500095,83.878479,
2.96416688,82.89714813,
2.965833187,84.28514862,
2.967499971,83.19562531,
2.969166756,83.61800385,
2.970833302,83.18648529,
2.972500086,83.74260712,
2.974166632,83.15551758,
2.975833416,83.06323242,
2.9775002,84.11537933,
2.979166746,84.16043091,
2.98083353,83.42445374,
2.982499838,82.95352936,
2.984166622,83.56781769,
2.985833406,83.96775818,
2.987499952,83.19270325,
2.989166737,84.1880188,
2.990833282,83.06929779,
2.992500067,84.5218811,
2.994166851,82.97660065,
2.995833397,84.44020081,
2.997500181,83.7164917,
2.999166727,83.21968842,
3.000833273,83.75309753,
3.002500057,83.10380554,
3.004166603,83.77774048,
3.005833387,83.23773193,
3.007499933,84.17420197,
3.009166718,83.91596222,
3.010833502,83.39512634,
3.012500048,83.12871552,
3.014166832,83.68014526,
3.015833378,83.65811157,
3.017500162,83.0616684,
3.019166708,83.41420746,
3.020833254,83.71121216,
3.022500038,82.97089386,
3.024166584,83.76064301,
3.025833368,83.11369324,
3.027500153,83.81794739,
3.029166698,83.16986084,
3.030833483,83.35207367,
3.032500029,83.49795532,
3.034166813,83.94526672,
3.035833597,82.92454529,
3.037499905,83.69274902,
3.039166689,83.5184021,
3.040833235,83.28912354,
3.042500019,84.16964722,
3.044166803,83.02333069,
3.045833349,83.31330872,
3.047500134,83.10623932,
3.049166679,83.40638733,
3.050833464,83.22862244,
3.052500248,83.59023285,

