1,,
Time (min),Intensity (a.u.),
0.0008333333535,138.9614716,
0.002500000177,139.8989716,
0.004166666884,139.8805542,
0.005833333358,139.0693054,
0.007500000298,139.5228729,
0.009166667238,140.0664063,
0.01083333418,140.1503754,
0.01250000019,139.1993103,
0.01416666713,139.4404449,
0.01583333313,141.1879425,
0.01750000194,141.9613037,
0.01916666701,140.9897003,
0.02083333395,142.2852478,
0.02250000089,141.318985,
0.02416666783,141.1020508,
0.02583333477,142.5037842,
0.02749999985,141.0369415,
0.02916666679,141.322403,
0.03083333373,140.9164581,
0.03250000253,141.044281,
0.03416666761,141.6235046,
0.03583333641,141.0762177,
0.03750000149,143.2922211,
0.03916667029,142.1080933,
0.04083333537,140.6733856,
0.04250000045,142.8445587,
0.04416666925,140.2856598,
0.04583333433,141.0483246,
0.04750000313,142.9373016,
0.04916666821,142.462616,
0.05083333328,142.6349487,
0.05250000209,139.2348785,
0.05416666716,142.9626617,
0.05583333597,141.7290649,
0.05750000104,141.8656616,
0.05916666612,140.878952,
0.06083333492,141.8763123,
0.0625,141.550293,
0.06416667253,141.0921326,
0.0658333376,139.9097595,
0.06750000268,140.773819,
0.06916666776,140.1962891,
0.07083333284,140.2220306,
0.07249999791,140.8487091,
0.07416667044,141.0498352,
0.07583333552,141.8451233,
0.0775000006,141.5028534,
0.07916666567,140.9256592,
0.08083333075,140.2086639,
0.08250000328,140.5563202,
0.08416666836,141.4525299,
0.08583333343,141.8808136,
0.08749999851,143.5249786,
0.08916666359,140.6432037,
0.09083333611,142.0799255,
0.09250000119,140.0813599,
0.09416666627,141.322937,
0.09583333135,141.3855286,
0.09749999642,141.0504761,
0.09916666895,141.108139,
0.100833334,143.262619,
0.1024999991,141.7471161,
0.1041666642,142.4614258,
0.1058333293,141.1157379,
0.1075000018,141.2118225,
0.1091666669,141.0773621,
0.1108333319,141.0527802,
0.112499997,141.9926147,
0.1141666621,140.639328,
0.1158333346,139.6964417,
0.1174999997,140.2984314,
0.1191666648,141.4880524,
0.1208333299,142.4145508,
0.1224999949,139.964798,
0.1241666749,140.5030365,
0.1258333325,142.7034607,
0.1274999976,140.7093658,
0.1291666627,142.2115326,
0.1308333278,140.5550842,
0.1325000077,140.418396,
0.1341666728,142.350174,
0.1358333379,140.8535156,
0.137500003,140.4562073,
0.1391666681,140.5371094,
0.1408333331,141.9483643,
0.1424999982,140.918457,
0.1441666782,140.689209,
0.1458333284,139.7099609,
0.1475000083,140.0868073,
0.1491666585,139.3492432,
0.1508333385,140.2859497,
0.1525000036,140.2116394,
0.1541666687,139.9681396,
0.1558333337,141.1000061,
0.1574999988,141.2283783,
0.1591666639,142.5339661,
0.1608333439,140.4858704,
0.162499994,142.0004578,
0.164166674,141.6787872,
0.1658333242,143.3438416,
0.1675000042,142.3187714,
0.1691666692,142.7056274,
0.1708333343,143.270462,
0.1724999994,142.4313049,
0.1741666645,142.3419189,
0.1758333296,141.8384552,
0.1775000095,140.7757111,
0.1791666597,142.4441376,
0.1808333397,143.552124,
0.1824999899,142.238678,
0.1841666698,140.4741669,
0.1858333498,141.7888489,
0.1875,139.8940887,
0.18916668,141.5509033,
0.1908333302,140.9340973,
0.1925000101,141.0726929,
0.1941666752,141.3264313,
0.1958333403,140.6262054,
0.1975000054,142.412735,
0.1991666704,143.0767059,
0.2008333355,142.8301697,
0.2025000155,141.4214325,
0.2041666657,141.6018066,
0.2058333457,141.8724823,
0.2074999958,142.173584,
0.2091666758,142.4548798,
0.2108333409,142.4850006,
0.212500006,141.4154968,
0.214166671,139.8739014,
0.2158333361,141.2318573,
0.2175000012,138.9425507,
0.2191666812,139.3143921,
0.2208333313,142.04216,
0.2225000113,140.034729,
0.2241666615,140.9779816,
0.2258333415,140.3521271,
0.2275000066,139.8681946,
0.2291666716,140.9046936,
0.2308333367,139.7776184,
0.2325000018,140.1880951,
0.2341666669,139.1908112,
0.2358333468,140.8429413,
0.237499997,140.8667603,
0.239166677,141.2260895,
0.2408333272,141.9800262,
0.2425000072,139.6987,
0.2441666722,142.2095947,
0.2458333373,141.9601288,
0.2475000024,141.0087738,
0.2491666675,141.0658112,
0.2508333325,140.6197357,
0.2524999976,141.0841827,
0.2541666627,140.8017731,
0.2558333278,142.242569,
0.2574999928,142.1794891,
0.2591666579,141.7151642,
0.2608333528,139.4528656,
0.2624999881,141.0084076,
0.264166683,141.0285645,
0.2658333182,141.188797,
0.2675000131,139.9821167,
0.2691666484,140.8153534,
0.2708333433,139.270813,
0.2725000083,141.1626129,
0.2741666734,141.7787323,
0.2758333385,143.0014343,
0.2775000036,142.2756348,
0.2791666687,140.4987946,
0.2808333337,140.5303955,
0.2824999988,140.2980042,
0.2841666937,140.6917114,
0.285833329,139.4846344,
0.287499994,141.8099976,
0.2891666591,141.097702,
0.290833354,142.4042816,
0.2925000191,141.0915375,
0.2941666543,141.8600769,
0.2958333194,139.687439,
0.2975000143,142.929245,
0.2991666794,140.5335999,
0.3008333445,141.836853,
0.3024999797,141.1429291,
0.3041666746,141.3953247,
0.3058333397,141.3400574,
0.3075000048,141.574646,
0.3091666996,139.9934692,
0.3108333349,139.79039,
0.3125,138.8868408,
0.3141666651,140.5012817,
0.31583336,139.5293121,
0.317500025,140.295105,
0.3191666603,137.9825439,
0.3208333254,140.2124481,
0.3225000203,139.2411346,
0.3241666853,140.2653961,
0.3258333504,139.485321,
0.3274999857,141.02388,
0.3291666806,140.3154907,
0.3308333457,140.9510956,
0.3325000107,140.7202148,
0.3341666758,140.5040741,
0.3358333409,139.9688873,
0.337500006,141.0817566,
0.339166671,140.2468719,
0.3408333361,140.1296082,
0.342500031,139.2566681,
0.3441666663,138.9937134,
0.3458333313,140.3693848,
0.3474999964,141.116394,
0.3491666913,139.7572632,
0.3508333564,139.3658752,
0.3524999917,140.9431763,
0.3541666567,139.0040741,
0.3558333516,139.4202271,
0.3575000167,138.6500549,
0.3591666818,139.4970856,
0.360833317,140.2658691,
0.3625000119,139.1251221,
0.364166677,139.2121124,
0.3658333421,140.3147125,
0.3675000072,138.872406,
0.3691666722,140.0073853,
0.3708333373,138.6152344,
0.3725000024,140.3408966,
0.3741666675,139.2297668,
0.3758333623,139.6951599,
0.3774999976,138.6039276,
0.3791666627,140.352829,
0.3808333278,142.5014954,
0.3825000226,140.3675537,
0.3841666877,140.5178375,
0.385833323,140.9405975,
0.3874999881,140.8830261,
0.389166683,140.9075928,
0.390833348,141.0433807,
0.3925000131,140.817627,
0.3941666484,141.6033173,
0.3958333433,141.622757,
0.3975000083,141.0023346,
0.3991666734,141.0678253,
0.4008333385,141.8327026,
0.4025000036,140.7418976,
0.4041666687,143.3645172,
0.4058333337,142.1422272,
0.4074999988,143.2684021,
0.4091666937,141.8570709,
0.410833329,140.0624237,
0.412499994,139.5935822,
0.4141666591,141.4668732,
0.415833354,141.0487061,
0.4175000191,141.9619293,
0.4191666543,139.750824,
0.4208333194,140.5755615,
0.4225000143,140.034317,
0.4241666794,139.7294006,
0.4258333445,141.1088104,
0.4274999797,140.1314545,
0.4291666746,140.9035034,
0.4308333397,139.8847046,
0.4325000048,139.2316895,
0.4341666996,139.1599121,
0.4358333349,141.4608459,
0.4375,140.1865692,
0.4391666651,138.8584442,
0.44083336,139.0763397,
0.442500025,138.0975189,
0.4441666603,139.6444092,
0.4458333254,138.810791,
0.4475000203,140.2076416,
0.4491666853,141.547348,
0.4508333504,139.9312286,
0.4524999857,138.1517487,
0.4541666806,139.5088959,
0.4558333457,140.7384644,
0.4575000107,140.6590881,
0.4591666758,139.4975586,
0.4608333409,140.8240967,
0.462500006,140.5366516,
0.464166671,139.0006561,
0.4658333361,141.0853882,
0.467500031,139.5735779,
0.4691666663,139.039505,
0.4708333313,140.7552643,
0.4724999964,140.1882477,
0.4741666913,139.7361908,
0.4758333564,140.2427521,
0.4774999917,140.0564117,
0.4791666567,139.454483,
0.4808333516,138.9810181,
0.4825000167,141.1712341,
0.4841666818,139.89328,
0.485833317,139.819046,
0.4875000119,137.3639221,
0.489166677,139.8566437,
0.4908333421,139.6400299,
0.4925000072,137.0624084,
0.4941666722,138.3263092,
0.4958333373,140.5666199,
0.4975000024,139.8820038,
0.4991666675,141.1282196,
0.5008333325,140.3348541,
0.5024999976,143.8121033,
0.5041666627,140.7537537,
0.5058333278,139.2635803,
0.5074999928,140.8974304,
0.5091666579,141.0621796,
0.510833323,140.2450867,
0.5124999881,140.9267273,
0.5141666532,140.3167419,
0.5158333182,140.3455811,
0.5175000429,140.5876312,
0.5191666484,140.7037506,
0.5208333135,139.5324097,
0.5224999785,139.923584,
0.5241667032,142.6187286,
0.5258333683,141.0818481,
0.5274999738,141.7852631,
0.5291666389,138.6408844,
0.5308333635,140.3274689,
0.5325000286,142.8157654,
0.5341666341,141.8039246,
0.5358333588,139.8153229,
0.5375000238,140.7132721,
0.5391666889,139.6417694,
0.540833354,139.815094,
0.5424999595,139.0122375,
0.5441666842,140.632019,
0.5458333492,139.7479553,
0.5475000143,140.6926117,
0.5491666794,140.7408447,
0.5508333445,139.7358856,
0.5525000095,140.4359131,
0.5541666746,139.4315338,
0.5558333993,140.1552887,
0.5575000048,140.9385071,
0.5591666698,140.4847107,
0.5608333349,140.652771,
0.5625,140.7556152,
0.5641667247,140.1379852,
0.5658333302,140.9246063,
0.5674999952,138.923233,
0.5691667199,138.7095795,
0.5708333254,141.0394745,
0.5725000501,141.3837891,
0.5741666555,138.3548889,
0.5758333206,139.0659332,
0.5775000453,139.6584778,
0.5791666508,140.5342865,
0.5808333755,141.3152924,
0.5825000405,140.6268158,
0.584166646,141.8334808,
0.5858333707,141.404007,
0.5874999762,141.7320862,
0.5891667008,141.54776,
0.5908333659,138.9305573,
0.5924999714,139.6885376,
0.5941666961,140.3377533,
0.5958333611,142.1210175,
0.5975000262,141.1549377,
0.5991666913,139.4501801,
0.6008332968,138.4078827,
0.6025000215,141.6314392,
0.6041666865,140.0147095,
0.6058333516,140.556076,
0.6075000167,139.674942,
0.6091666818,139.9508057,
0.6108333468,139.3129883,
0.6125000119,140.0574188,
0.614166677,141.6893005,
0.6158333421,141.2814178,
0.6175000072,138.8825531,
0.6191666722,140.6742096,
0.6208333373,139.8413696,
0.622500062,141.1536407,
0.6241666675,139.3471222,
0.6258333325,140.6273499,
0.6274999976,141.6579742,
0.6291666627,140.3053741,
0.6308333874,140.5878754,
0.6324999928,140.3439331,
0.6341666579,140.4411621,
0.6358333826,140.7805023,
0.6374999881,140.1920776,
0.6391667128,141.270401,
0.6408333182,139.2062988,
0.6424999833,140.249054,
0.644166708,140.7235413,
0.6458333135,140.3607025,
0.6475000381,140.7083893,
0.6491667032,140.2023468,
0.6508333087,138.8631134,
0.6525000334,139.4389801,
0.6541666389,140.6150818,
0.6558333635,140.738266,
0.6575000286,139.3963165,
0.6591666341,140.3251648,
0.6608333588,140.6224518,
0.6625000238,139.3162079,
0.6641666889,139.6937866,
0.665833354,138.0827332,
0.6674999595,139.4797974,
0.6691666842,138.5246887,
0.6708333492,138.9287262,
0.6725000143,138.6979065,
0.6741666794,138.769928,
0.6758333445,139.5902252,
0.6775000095,139.9231873,
0.6791666746,138.1697845,
0.6808333993,138.2595215,
0.6825000048,139.1411591,
0.6841666698,137.531723,
0.6858333349,140.7372589,
0.6875,140.0996857,
0.6891667247,140.8482819,
0.6908333302,139.7905273,
0.6924999952,140.4078674,
0.6941667199,139.009491,
0.6958333254,140.4426117,
0.6975000501,140.8498535,
0.6991666555,139.4917145,
0.7008333206,140.7644043,
0.7025000453,140.2250977,
0.7041666508,139.7921295,
0.7058333755,140.3076477,
0.7075000405,140.8556519,
0.709166646,141.4202728,
0.7108333707,140.562088,
0.7124999762,140.4287262,
0.7141667008,141.2622833,
0.7158333659,140.8864594,
0.7174999714,140.1837158,
0.7191666961,139.1609955,
0.7208333611,139.6931,
0.7225000262,140.0697327,
0.7241666913,141.3703156,
0.7258332968,141.1112366,
0.7275000215,140.5726318,
0.7291666865,139.5353088,
0.7308333516,140.7407379,
0.7325000167,139.2799988,
0.7341666818,140.9759521,
0.7358333468,139.7480316,
0.7375000119,139.2743225,
0.739166677,140.1391602,
0.7408333421,139.3417969,
0.7425000072,139.2758484,
0.7441666722,139.6182556,
0.7458333373,139.7112122,
0.747500062,139.9783478,
0.7491666675,139.9297333,
0.7508333325,140.6112823,
0.7524999976,143.1956024,
0.7541666627,138.5209808,
0.7558333874,140.1582336,
0.7574999928,138.0674133,
0.7591666579,140.0525513,
0.7608333826,138.8528137,
0.7624999881,139.0021515,
0.7641667128,140.0989685,
0.7658333182,139.5948334,
0.7674999833,140.2838593,
0.769166708,138.8235168,
0.7708333135,141.4641113,
0.7725000381,141.1609497,
0.7741667032,139.1957397,
0.7758333087,139.75177,
0.7775000334,139.8895721,
0.7791666389,141.8701935,
0.7808333635,139.7362823,
0.7825000286,142.0961914,
0.7841666341,138.6107483,
0.7858333588,142.2408905,
0.7875000238,140.3219757,
0.7891666889,138.6300659,
0.790833354,140.8583374,
0.7924999595,141.2547302,
0.7941666842,140.1795807,
0.7958333492,138.842041,
0.7975000143,140.2240143,
0.7991666794,144.8298492,
0.8008333445,140.7514496,
0.8025000095,140.4033203,
0.8041666746,140.8073883,
0.8058333993,139.0666962,
0.8075000048,140.6885681,
0.8091666698,141.1402588,
0.8108333349,140.1195374,
0.8125,139.5117798,
0.8141667247,140.2599182,
0.8158333302,141.0385895,
0.8174999952,140.356781,
0.8191667199,140.0532684,
0.8208333254,139.6763153,
0.8225000501,138.8978424,
0.8241666555,140.3520966,
0.8258333206,140.3746185,
0.8275000453,140.3385925,
0.8291666508,140.3641357,
0.8308333755,140.6461182,
0.8325000405,140.1593323,
0.834166646,140.416153,
0.8358333707,139.1998749,
0.8374999762,137.9997406,
0.8391667008,142.12323,
0.8408333659,139.1192932,
0.8424999714,139.0049591,
0.8441666961,140.330246,
0.8458333611,139.7283936,
0.8475000262,140.0532227,
0.8491666913,140.6940002,
0.8508332968,140.0940094,
0.8525000215,140.5588684,
0.8541666865,140.349411,
0.8558333516,139.847229,
0.8575000167,139.8189697,
0.8591666818,139.057373,
0.8608333468,139.4603271,
0.8625000119,140.4161224,
0.864166677,141.3140106,
0.8658333421,139.7854767,
0.8675000072,141.6435242,
0.8691666722,140.4386749,
0.8708333373,138.6551971,
0.872500062,138.8245239,
0.8741666675,139.6953735,
0.8758333325,139.6442261,
0.8774999976,138.8972168,
0.8791666627,139.8738861,
0.8808333874,140.3600159,
0.8824999928,140.1579132,
0.8841666579,139.2171631,
0.8858333826,141.0113831,
0.8874999881,139.5910492,
0.8891667128,139.9629517,
0.8908333182,138.9674225,
0.8924999833,139.41539,
0.894166708,139.7988739,
0.8958333135,139.7616577,
0.8975000381,139.309967,
0.8991667032,140.5765228,
0.9008333087,137.74823,
0.9025000334,139.6424561,
0.9041666389,139.1315155,
0.9058333635,137.6782074,
0.9075000286,138.8603058,
0.9091666341,139.5530396,
0.9108333588,138.8074036,
0.9125000238,140.1386871,
0.9141666889,139.9671326,
0.915833354,140.7184143,
0.9174999595,139.496048,
0.9191666842,139.1394653,
0.9208333492,139.8078613,
0.9225000143,140.3799591,
0.9241666794,139.0864868,
0.9258333445,139.3678894,
0.9275000095,138.7333679,
0.9291666746,139.175293,
0.9308333993,138.6132355,
0.9325000048,140.6509857,
0.9341666698,140.3219452,
0.9358333349,139.3417511,
0.9375,140.148468,
0.9391667247,139.9693451,
0.9408333302,138.7368164,
0.9424999952,139.9236603,
0.9441667199,139.3016052,
0.9458333254,139.4082184,
0.9475000501,139.7648773,
0.9491666555,140.5610809,
0.9508333206,139.4509277,
0.9525000453,140.6565857,
0.9541666508,140.6119537,
0.9558333755,141.154068,
0.9575000405,139.1800079,
0.959166646,139.6726227,
0.9608333707,140.7718658,
0.9624999762,139.2854156,
0.9641667008,138.1503601,
0.9658333659,139.2253113,
0.9674999714,138.8958893,
0.9691666961,139.2950745,
0.9708333611,140.0390778,
0.9725000262,140.126358,
0.9741666913,139.1922913,
0.9758332968,140.279007,
0.9775000215,139.2911987,
0.9791666865,140.7227783,
0.9808333516,140.2299652,
0.9825000167,139.8622589,
0.9841666818,140.8415833,
0.9858333468,139.7891235,
0.9875000119,139.0567322,
0.989166677,139.6195526,
0.9908333421,139.8525391,
0.9925000072,139.2198486,
0.9941666722,139.2108154,
0.9958333373,140.3815155,
0.997500062,139.1217499,
0.9991666675,138.8715057,
1.000833273,139.1366882,
1.002500057,139.4204712,
1.004166722,139.432251,
1.005833387,140.0288849,
1.007500052,139.1586761,
1.009166598,138.4655762,
1.010833383,139.8588409,
1.012500048,140.431839,
1.014166713,139.1817322,
1.015833378,138.327179,
1.017500043,138.9426727,
1.019166708,140.9212799,
1.020833373,140.3311462,
1.022500038,139.9880066,
1.024166703,139.2365875,
1.025833368,140.303772,
1.027500033,140.2914429,
1.029166698,139.559433,
1.030833364,141.37117,
1.032500029,139.4703827,
1.034166694,139.933197,
1.035833359,139.1620178,
1.037500024,138.3273468,
1.039166689,139.4440918,
1.040833354,139.6643677,
1.042500019,139.7561646,
1.044166684,138.6273956,
1.045833349,139.5005798,
1.047500014,139.7632141,
1.049166679,138.1406403,
1.050833344,139.2334747,
1.05250001,141.8169556,
1.054166675,138.1355133,
1.05583334,140.8695526,
1.057500005,140.7832794,
1.05916667,138.2814178,
1.060833335,139.2888489,
1.0625,141.2129364,
1.064166665,138.3363953,
1.06583333,138.4680328,
1.067499995,137.8130798,
1.06916666,140.1821899,
1.070833325,141.1955109,
1.07249999,139.76651,
1.074166775,140.083847,
1.07583344,139.1591949,
1.077499986,138.1025543,
1.079166651,139.7659149,
1.080833316,138.942215,
1.0825001,139.3051147,
1.084166765,140.6213837,
1.085833311,139.0285339,
1.087499976,139.6030273,
1.089166641,139.7247467,
1.090833426,137.9715271,
1.092500091,138.2917175,
1.094166636,140.1806183,
1.095833302,136.3340759,
1.097499967,126.7589645,
1.099166751,119.9448395,
1.100833416,118.3900909,
1.102500081,119.0457916,
1.104166627,122.7895432,
1.105833292,119.7701111,
1.107500076,114.3851013,
1.109166741,113.4168396,
1.110833406,128.6052246,
1.112499952,128.4862518,
1.114166617,132.3321838,
1.115833402,120.7943497,
1.117500067,130.2359009,
1.119166732,121.5874176,
1.120833278,128.5504761,
1.122499943,133.8357697,
1.124166727,109.266983,
1.125833392,133.3011475,
1.127500057,136.4053497,
1.129166722,134.7239838,
1.130833268,134.5706635,
1.132500052,135.3257751,
1.134166718,135.3990936,
1.135833383,134.3062286,
1.137500048,134.9448395,
1.139166594,134.6776581,
1.140833378,132.3551636,
1.142500043,135.2497864,
1.144166708,133.0391693,
1.145833373,133.6988068,
1.147499919,131.9060669,
1.149166703,131.5866241,
1.150833368,131.0974274,
1.152500033,132.4377289,
1.154166698,131.330719,
1.155833364,132.0056458,
1.157500029,131.2295685,
1.159166694,131.1945496,
1.160833359,131.9793701,
1.162500024,131.003418,
1.164166689,131.4307251,
1.165833354,130.8880005,
1.167500019,131.6996155,
1.169166684,132.4122009,
1.170833349,131.7982025,
1.172500014,130.989975,
1.174166799,129.3880463,
1.175833344,129.5293732,
1.17750001,130.8598328,
1.179166675,130.6473236,
1.18083334,130.1018524,
1.182500124,128.2251282,
1.18416667,132.1168976,
1.185833335,128.8078461,
1.1875,128.9270935,
1.189166665,130.0407104,
1.190833449,128.6274872,
1.192499995,129.9930115,
1.19416666,129.5769043,
1.195833325,129.2731628,
1.19749999,128.5311127,
1.199166775,127.8390732,
1.20083344,128.0997162,
1.202499986,127.8774719,
1.204166651,129.1351013,
1.205833316,127.514061,
1.2075001,127.7921066,
1.209166765,127.7215958,
1.210833311,129.6205444,
1.212499976,128.5174713,
1.214166641,128.5341492,
1.215833426,128.0141144,
1.217500091,126.8460617,
1.219166636,127.8778915,
1.220833302,127.0613403,
1.222499967,128.0584717,
1.224166751,129.1654968,
1.225833416,128.6636353,
1.227500081,126.8550339,
1.229166627,127.5375366,
1.230833292,126.8658066,
1.232500076,128.1357269,
1.234166741,126.8788757,
1.235833406,127.2711182,
1.237499952,127.3580322,
1.239166617,127.6092377,
1.240833402,126.5858688,
1.242500067,126.3435516,
1.244166732,125.3168564,
1.245833278,128.1198578,
1.247499943,127.1429825,
1.249166727,127.1675949,
1.250833392,127.1054306,
1.252500057,126.630127,
1.254166722,125.9422455,
1.255833268,126.5517349,
1.257500052,125.1484756,
1.259166718,124.9288406,
1.260833383,125.1804199,
1.262500048,125.0994034,
1.264166594,127.2044296,
1.265833378,126.0680695,
1.267500043,125.132576,
1.269166708,125.6089783,
1.270833373,125.4571686,
1.272499919,125.5891495,
1.274166703,125.5114365,
1.275833368,124.5487289,
1.277500033,125.2790833,
1.279166698,125.4581375,
1.280833364,124.5282288,
1.282500029,125.3696518,
1.284166694,124.1490936,
1.285833359,124.4241943,
1.287500024,125.213089,
1.289166689,124.4655762,
1.290833354,124.2479248,
1.292500019,125.9977798,
1.294166684,125.8937988,
1.295833349,126.5464249,
1.297500014,124.9195251,
1.299166799,123.8601303,
1.300833344,124.9198532,
1.30250001,123.3898315,
1.304166675,122.3156509,
1.30583334,122.8162079,
1.307500124,124.1449966,
1.30916667,123.7243958,
1.310833335,124.0733871,
1.3125,123.4307632,
1.314166665,123.9927216,
1.315833449,124.14254,
1.317499995,125.1388626,
1.31916666,124.9078903,
1.320833325,123.6606827,
1.32249999,123.7374573,
1.324166775,123.391449,
1.32583344,124.4007874,
1.327499986,123.4515152,
1.329166651,122.6802444,
1.330833316,125.2281494,
1.3325001,123.4676208,
1.334166765,122.376442,
1.335833311,123.8227158,
1.337499976,122.4413071,
1.339166641,123.6083069,
1.340833426,123.0381165,
1.342500091,122.4395676,
1.344166636,123.2590485,
1.345833302,122.4902039,
1.347499967,122.477211,
1.349166751,122.2403793,
1.350833416,122.0320663,
1.352500081,124.3572769,
1.354166627,122.3479919,
1.355833292,123.2770309,
1.357500076,121.4558945,
1.359166741,122.4061127,
1.360833406,121.7623291,
1.362499952,122.1467514,
1.364166617,123.0379791,
1.365833402,123.0381393,
1.367500067,121.6697769,
1.369166732,122.4999847,
1.370833278,124.1360016,
1.372499943,122.7949066,
1.374166727,123.0896912,
1.375833392,122.0406723,
1.377500057,122.7178192,
1.379166722,123.2143707,
1.380833268,122.6193848,
1.382500052,122.5578995,
1.384166718,122.2844086,
1.385833383,124.1560974,
1.387500048,123.421051,
1.389166594,123.1083755,
1.390833378,122.4788132,
1.392500043,121.3858032,
1.394166708,122.3031845,
1.395833373,122.3780365,
1.397499919,121.8240356,
1.399166703,121.4828186,
1.400833368,123.7715836,
1.402500033,121.0207443,
1.404166698,122.8428726,
1.405833364,122.157402,
1.407500029,122.2638626,
1.409166694,121.4447327,
1.410833359,120.8616028,
1.412500024,120.4025192,
1.414166689,121.1368561,
1.415833354,120.7788544,
1.417500019,122.4902649,
1.419166684,122.3860855,
1.420833349,121.4713593,
1.422500014,121.6543121,
1.424166799,122.028038,
1.425833344,122.2460556,
1.42750001,122.7505264,
1.429166675,121.662178,
1.43083334,121.6747665,
1.432500124,120.970314,
1.43416667,120.4637451,
1.435833335,121.6481705,
1.4375,120.701828,
1.439166665,119.8585815,
1.440833449,122.8878326,
1.442499995,122.6067963,
1.44416666,122.2258377,
1.445833325,121.4595032,
1.44749999,121.734642,
1.449166775,120.5786819,
1.45083344,119.9572601,
1.452499986,120.7263641,
1.454166651,120.9727249,
1.455833316,121.3983765,
1.4575001,122.0409241,
1.459166765,121.7341156,
1.460833311,120.3141251,
1.462499976,120.9120255,
1.464166641,120.1423645,
1.465833426,120.1632843,
1.467500091,121.2729645,
1.469166636,120.5047913,
1.470833302,120.840889,
1.472499967,120.7052078,
1.474166751,120.013443,
1.475833416,120.2347488,
1.477500081,119.7913437,
1.479166627,121.2149506,
1.480833292,119.407959,
1.482500076,119.8994064,
1.484166741,120.1633453,
1.485833406,121.0029755,
1.487499952,120.7386322,
1.489166617,121.0441284,
1.490833402,120.4948807,
1.492500067,120.8111267,
1.494166732,120.8846512,
1.495833278,119.4439316,
1.497499943,120.1650238,
1.499166727,120.8578568,
1.500833392,119.8849106,
1.502500057,120.4442978,
1.504166722,120.6167297,
1.505833268,119.5959244,
1.507500052,119.4464493,
1.509166718,120.7366028,
1.510833383,122.1416702,
1.512500048,120.741539,
1.514166594,121.1324844,
1.515833378,120.1644745,
1.517500043,120.3493423,
1.519166708,120.3387833,
1.520833373,119.9298706,
1.522499919,121.4022293,
1.524166703,119.9945755,
1.525833368,120.2765045,
1.527500033,120.4864883,
1.529166698,120.3027954,
1.530833364,122.3438492,
1.532500029,118.9910583,
1.534166694,120.1380234,
1.535833359,119.7009811,
1.537500024,121.5719757,
1.539166689,120.0909729,
1.540833354,120.177063,
1.542500019,120.1421814,
1.544166684,120.4820023,
1.545833349,121.3635178,
1.547500014,118.7399979,
1.549166799,119.9613113,
1.550833344,119.3014374,
1.55250001,119.2836075,
1.554166675,119.0613632,
1.55583334,120.5569687,
1.557500124,119.5536804,
1.55916667,121.2485046,
1.560833335,120.5423965,
1.5625,119.9587402,
1.564166665,120.1932373,
1.565833449,121.713913,
1.567499995,121.2090912,
1.56916666,121.051506,
1.570833325,119.5927505,
1.57249999,119.7975845,
1.574166775,119.5327606,
1.57583344,119.8627548,
1.577499986,120.7865143,
1.579166651,117.4187622,
1.580833316,120.4132004,
1.5825001,120.1099854,
1.584166765,120.4760971,
1.585833311,120.0554123,
1.587499976,120.9579086,
1.589166641,120.2565918,
1.590833426,122.185463,
1.592500091,120.2514801,
1.594166636,119.7582474,
1.595833302,119.8947983,
1.597499967,119.8462906,
1.599166751,119.9543686,
1.600833416,119.2553482,
1.602500081,120.264801,
1.604166627,120.8462982,
1.605833292,121.7400513,
1.607500076,120.2601547,
1.609166741,121.0750122,
1.610833406,120.1845169,
1.612499952,119.792778,
1.614166617,119.471817,
1.615833402,119.5631027,
1.617500067,119.2083359,
1.619166732,120.1503601,
1.620833278,119.2853928,
1.622499943,120.0065689,
1.624166727,120.2983475,
1.625833392,120.0607147,
1.627500057,118.989502,
1.629166722,119.4399643,
1.630833268,119.9623795,
1.632500052,119.4264145,
1.634166718,120.3027115,
1.635833383,120.6990204,
1.637500048,118.8329315,
1.639166594,119.9061356,
1.640833378,120.2712097,
1.642500043,119.6102219,
1.644166708,120.4751282,
1.645833373,119.9515991,
1.647499919,118.4751205,
1.649166703,119.3587646,
1.650833368,118.5974884,
1.652500033,119.7607422,
1.654166698,119.006073,
1.655833364,118.7033386,
1.657500029,118.1596909,
1.659166694,118.6881409,
1.660833359,119.5348282,
1.662500024,120.7326736,
1.664166689,119.4610291,
1.665833354,120.1686325,
1.667500019,118.6946182,
1.669166684,119.0371399,
1.670833349,118.7664413,
1.672500014,119.3820877,
1.674166799,119.2613144,
1.675833344,120.2341003,
1.67750001,119.0375748,
1.679166675,118.7654724,
1.68083334,120.6668015,
1.682500124,118.9728546,
1.68416667,118.7312393,
1.685833335,121.0737839,
1.6875,119.7926483,
1.689166665,119.2656097,
1.690833449,119.4773788,
1.692499995,118.0802994,
1.69416666,119.1545181,
1.695833325,118.9569778,
1.69749999,119.3249664,
1.699166775,119.4585342,
1.70083344,119.5629425,
1.702499986,120.6502914,
1.704166651,119.4272232,
1.705833316,118.8969727,
1.7075001,118.4669876,
1.709166765,119.0739517,
1.710833311,121.6615906,
1.712499976,119.8049316,
1.714166641,118.8403778,
1.715833426,120.4123459,
1.717500091,119.3352432,
1.719166636,118.538414,
1.720833302,118.6371994,
1.722499967,120.7195129,
1.724166751,121.2170486,
1.725833416,119.1973953,
1.727500081,119.1794739,
1.729166627,119.2662277,
1.730833292,119.2139816,
1.732500076,117.9451141,
1.734166741,119.3484039,
1.735833406,119.4352722,
1.737499952,119.0515594,
1.739166617,118.4420166,
1.740833402,119.3804626,
1.742500067,117.5272751,
1.744166732,120.3479996,
1.745833278,119.1608429,
1.747499943,119.1704407,
1.749166727,119.7928391,
1.750833392,118.6793823,
1.752500057,119.9825668,
1.754166722,118.3734818,
1.755833268,119.3641968,
1.757500052,119.7183609,
1.759166718,119.0130768,
1.760833383,118.7445908,
1.762500048,117.9474258,
1.764166594,118.4069443,
1.765833378,119.5730515,
1.767500043,118.334404,
1.769166708,119.1429214,
1.770833373,119.8261108,
1.772499919,118.5667114,
1.774166703,118.8396683,
1.775833368,118.6092682,
1.777500033,119.2966766,
1.779166698,119.1684799,
1.780833364,119.3906631,
1.782500029,119.3730392,
1.784166694,118.2058487,
1.785833359,118.3651581,
1.787500024,118.8299408,
1.789166689,117.7186584,
1.790833354,118.7167587,
1.792500019,119.0784149,
1.794166684,118.6992416,
1.795833349,119.2312012,
1.797500014,118.2559738,
1.799166799,118.951561,
1.800833344,118.7880554,
1.80250001,118.1126328,
1.804166675,118.2773819,
1.80583334,118.2762985,
1.807500124,118.9313354,
1.80916667,118.4524231,
1.810833335,119.9947357,
1.8125,118.5353012,
1.814166665,118.3873825,
1.815833449,118.2432251,
1.817499995,118.3829956,
1.81916666,118.8734055,
1.820833325,118.2460938,
1.82249999,119.0682831,
1.824166775,118.5634918,
1.82583344,118.618187,
1.827499986,117.9669342,
1.829166651,119.3157883,
1.830833316,118.025322,
1.8325001,117.9530334,
1.834166765,118.5974731,
1.835833311,117.7989731,
1.837499976,118.4975662,
1.839166641,119.0707855,
1.840833426,118.7476044,
1.842500091,117.8887711,
1.844166636,118.0001297,
1.845833302,118.7739639,
1.847499967,117.91436,
1.849166751,117.8830185,
1.850833416,116.8891754,
1.852500081,117.487175,
1.854166627,117.8076935,
1.855833292,119.0016937,
1.857500076,118.2306824,
1.859166741,119.999733,
1.860833406,118.4248657,
1.862499952,116.5581207,
1.864166617,117.3254013,
1.865833402,118.6894073,
1.867500067,119.0471573,
1.869166732,118.2989426,
1.870833278,118.8498535,
1.872499943,117.7323074,
1.874166727,118.2967377,
1.875833392,118.2451782,
1.877500057,118.3621292,
1.879166722,117.599411,
1.880833268,118.229248,
1.882500052,117.8684006,
1.884166718,119.3374786,
1.885833383,118.3716507,
1.887500048,119.619873,
1.889166594,120.606102,
1.890833378,118.7923508,
1.892500043,118.5348587,
1.894166708,118.9962234,
1.895833373,119.1372223,
1.897499919,117.6819916,
1.899166703,118.3043747,
1.900833368,118.2830048,
1.902500033,118.6589508,
1.904166698,118.3430099,
1.905833364,118.958786,
1.907500029,118.398735,
1.909166694,119.4221878,
1.910833359,118.8585358,
1.912500024,117.4846115,
1.914166689,118.3911209,
1.915833354,119.7416153,
1.917500019,117.2829361,
1.919166684,118.721344,
1.920833349,117.4034271,
1.922500014,118.1724167,
1.924166799,118.4733734,
1.925833344,119.5950928,
1.92750001,117.8813553,
1.929166675,117.706131,
1.93083334,118.6202774,
1.932500124,116.9544144,
1.93416667,118.585968,
1.935833335,118.0490723,
1.9375,117.1960754,
1.939166665,118.0910416,
1.940833449,118.1190872,
1.942499995,117.9134445,
1.94416666,118.6674881,
1.945833325,118.390976,
1.94749999,117.4141312,
1.949166775,117.8877716,
1.95083344,118.1929092,
1.952499986,117.6327515,
1.954166651,117.4030533,
1.955833316,117.7899017,
1.9575001,117.6463318,
1.959166765,118.9050064,
1.960833311,118.4492645,
1.962499976,117.319725,
1.964166641,118.1331787,
1.965833426,117.1946869,
1.967500091,118.1343231,
1.969166636,117.1863937,
1.970833302,117.6908493,
1.972499967,118.4936218,
1.974166751,117.972908,
1.975833416,117.7816238,
1.977500081,118.5832062,
1.979166627,117.5666046,
1.980833292,117.6172485,
1.982500076,118.3526154,
1.984166741,117.5251236,
1.985833406,117.3387833,
1.987499952,117.5178757,
1.989166617,117.5236282,
1.990833402,117.920723,
1.992500067,117.4297714,
1.994166732,118.2978363,
1.995833278,117.7857895,
1.997499943,116.037056,
1.999166727,117.8752213,
2.000833273,116.2607193,
2.002500057,118.1674042,
2.004166603,119.2002792,
2.005833387,118.398407,
2.007500172,118.1040878,
2.009166718,118.3206177,
2.010833263,117.8736191,
2.012500048,118.0104752,
2.014166594,118.4486389,
2.015833378,119.2951279,
2.017500162,117.6202774,
2.019166708,118.8574524,
2.020833254,117.759903,
2.022500038,117.9328232,
2.024166822,119.2796173,
2.025833368,117.4977417,
2.027499914,117.1971207,
2.029166698,119.0210876,
2.030833244,117.7307739,
2.032500029,117.0758133,
2.034166813,117.3416443,
2.035833359,116.7383499,
2.037499905,118.4072266,
2.039166689,116.8944931,
2.040833473,118.3557739,
2.042500019,117.3885956,
2.044166803,118.0148621,
2.045833349,118.2621307,
2.047499895,117.3156204,
2.049166679,117.5649338,
2.050833464,116.8862305,
2.05250001,116.890419,
2.054166555,117.1330109,
2.05583334,116.9370193,
2.057500124,117.1693497,
2.05916667,116.8619232,
2.060833454,117.9215317,
2.0625,117.0778198,
2.064166546,117.3965607,
2.06583333,116.6527557,
2.067500114,117.7281113,
2.06916666,117.0825119,
2.070833445,117.026062,
2.07249999,118.2502365,
2.074166775,118.1491394,
2.075833321,118.4932938,
2.077500105,117.9742584,
2.079166651,118.4075775,
2.080833197,117.1752319,
2.082499981,116.6139526,
2.084166765,117.7961044,
2.085833311,117.1618652,
2.087500095,118.4808197,
2.089166641,118.2164612,
2.090833426,117.3794861,
2.092499971,118.9220428,
2.094166756,117.5405502,
2.095833302,116.6919327,
2.097500086,117.4458466,
2.099166632,117.8203201,
2.100833416,117.5245972,
2.102499962,118.7890778,
2.104166746,117.7841339,
2.105833292,117.8479691,
2.107500076,117.6894989,
2.109166622,117.4236908,
2.110833406,117.5590286,
2.112499952,116.7149124,
2.114166737,117.997261,
2.115833521,116.8038025,
2.117500067,117.9523926,
2.119166613,117.2412491,
2.120833397,119.1018982,
2.122499943,116.125061,
2.124166727,116.546257,
2.125833273,118.4973068,
2.127500057,117.7841492,
2.129166603,117.7770462,
2.130833387,116.9060669,
2.132500172,117.4450531,
2.134166718,117.9133606,
2.135833502,118.4368515,
2.137500048,117.5792542,
2.139166832,116.7569351,
2.140833378,118.0936432,
2.142500162,116.3112869,
2.144166708,117.1442566,
2.145833254,116.7063828,
2.147500038,118.3394623,
2.149166584,116.3709335,
2.150833368,116.904068,
2.152500153,118.0555954,
2.154166698,117.3181915,
2.155833483,117.8440857,
2.157500029,117.6782074,
2.159166813,117.8017731,
2.160833597,117.1006851,
2.162499905,118.5421906,
2.164166689,117.2136459,
2.165833235,118.3435287,
2.167500019,117.7426071,
2.169166803,117.020752,
2.170833349,116.9109802,
2.172500134,120.0919495,
2.174166679,117.1933899,
2.175833464,117.0718002,
2.177500248,117.9997025,
2.179166555,118.3311386,
2.18083334,117.7030106,
2.182499886,117.4474564,
2.18416667,117.5306625,
2.185833454,116.0938644,
2.1875,118.7052765,
2.189166784,118.0660019,
2.19083333,117.3181305,
2.192500114,117.1319733,
2.194166899,118.2341309,
2.195833445,117.6712341,
2.19749999,117.9317627,
2.199166536,119.0708237,
2.200833321,117.4232635,
2.202500105,119.1031342,
2.204166651,114.7554169,
2.205833435,119.2554626,
2.207499981,117.4524155,
2.209166765,119.4499207,
2.210833549,117.3710861,
2.212500095,118.6541672,
2.21416688,117.1522903,
2.215833187,117.8207779,
2.217499971,117.9349899,
2.219166756,117.607605,
2.220833302,117.474968,
2.222500086,118.2335129,
2.224166632,118.0255203,
2.225833416,118.0626221,
2.2275002,118.5957336,
2.229166746,118.7233429,
2.23083353,117.3302765,
2.232499838,119.2190247,
2.234166622,117.7033997,
2.235833406,118.5257416,
2.237499952,118.3075333,
2.239166737,120.4169617,
2.240833282,117.5481491,
2.242500067,117.9064102,
2.244166851,117.7063217,
2.245833397,118.7743912,
2.247500181,117.9909439,
2.249166727,116.6703644,
2.250833273,118.3729477,
2.252500057,116.9215088,
2.254166603,116.1767807,
2.255833387,116.9331207,
2.257499933,118.1284714,
2.259166718,117.4529343,
2.260833502,118.4155502,
2.262500048,116.7470627,
2.264166832,117.1680069,
2.265833378,117.2250443,
2.267500162,117.503891,
2.269166708,120.4938354,
2.270833254,116.946701,
2.272500038,116.2057495,
2.274166584,117.0535507,
2.275833368,117.6110382,
2.277500153,117.4546585,
2.279166698,117.2361832,
2.280833483,118.2120514,
2.282500029,117.4412537,
2.284166813,117.5742035,
2.285833597,117.6887054,
2.287499905,118.3871078,
2.289166689,117.2040329,
2.290833235,117.1783905,
2.292500019,117.2005386,
2.294166803,115.5875092,
2.295833349,118.7819824,
2.297500134,117.0907898,
2.299166679,119.084198,
2.300833464,118.0047073,
2.302500248,117.8177567,
2.304166555,117.922905,
2.30583334,117.9320297,
2.307499886,118.007782,
2.30916667,116.9426422,
2.310833454,118.3805923,
2.3125,117.3086777,
2.314166784,117.455925,
2.31583333,116.9225388,
2.317500114,117.5902328,
2.319166899,117.2932663,
2.320833445,117.7646942,
2.32249999,117.2156296,
2.324166536,117.5522842,
2.325833321,117.7938156,
2.327500105,117.3933334,
2.329166651,118.0340805,
2.330833435,116.8967514,
2.332499981,116.8097458,
2.334166765,116.1672668,
2.335833549,116.4470444,
2.337500095,116.67556,
2.33916688,116.9955444,
2.340833187,117.0121002,
2.342499971,116.6723099,
2.344166756,116.7603226,
2.345833302,117.158287,
2.347500086,117.4617996,
2.349166632,117.5461273,
2.350833416,117.0612946,
2.3525002,118.2235641,
2.354166746,116.9496994,
2.35583353,117.8865128,
2.357499838,117.3321304,
2.359166622,117.1020126,
2.360833406,116.063858,
2.362499952,117.2566147,
2.364166737,117.907547,
2.365833282,117.403923,
2.367500067,117.8721008,
2.369166851,117.5410309,
2.370833397,116.4699326,
2.372500181,116.9214783,
2.374166727,116.6474991,
2.375833273,116.1328812,
2.377500057,115.3100281,
2.379166603,116.9620361,
2.380833387,116.9205856,
2.382499933,118.1771545,
2.384166718,116.7663727,
2.385833502,116.7873001,
2.387500048,116.6338882,
2.389166832,116.287796,
2.390833378,116.960083,
2.392500162,117.7950592,
2.394166708,117.2843704,
2.395833254,116.5568466,
2.397500038,117.5834503,
2.399166584,116.9959106,
2.400833368,116.8157043,
2.402500153,115.9330902,
2.404166698,116.5215759,
2.405833483,116.4271088,
2.407500029,116.222168,
2.409166813,117.0783768,
2.410833597,116.7715988,
2.412499905,115.4263229,
2.414166689,116.7034607,
2.415833235,117.5123749,
2.417500019,116.7490616,
2.419166803,116.0393982,
2.420833349,117.6049881,
2.422500134,116.3644943,
2.424166679,117.4795151,
2.425833464,116.8880463,
2.427500248,119.913887,
2.429166555,117.5589905,
2.43083334,117.1128998,
2.432499886,117.2796478,
2.43416667,116.7049713,
2.435833454,116.8683167,
2.4375,116.6697769,
2.439166784,116.8324814,
2.44083333,117.446846,
2.442500114,116.7323456,
2.444166899,117.9638672,
2.445833445,116.5899048,
2.44749999,117.6683121,
2.449166536,117.3398895,
2.450833321,116.8373337,
2.452500105,116.0095901,
2.454166651,117.0183105,
2.455833435,117.0916595,
2.457499981,116.9371872,
2.459166765,118.1854858,
2.460833549,118.1312332,
2.462500095,116.5596771,
2.46416688,117.9435043,
2.465833187,116.9033127,
2.467499971,118.7642899,
2.469166756,117.1771011,
2.470833302,117.3377075,
2.472500086,117.2905273,
2.474166632,118.5244293,
2.475833416,117.6438065,
2.4775002,116.6933975,
2.479166746,117.5709152,
2.48083353,116.9546432,
2.482499838,116.58741,
2.484166622,118.5461044,
2.485833406,116.8534546,
2.487499952,116.9455109,
2.489166737,117.0128021,
2.490833282,117.4775925,
2.492500067,117.7191238,
2.494166851,117.0735855,
2.495833397,117.8359909,
2.497500181,117.6933975,
2.499166727,117.7280655,
2.500833273,117.6532364,
2.502500057,115.8895569,
2.504166603,116.8194427,
2.505833387,116.2259674,
2.507499933,117.7071304,
2.509166718,118.6625595,
2.510833502,117.2788544,
2.512500048,117.0042648,
2.514166832,116.7689667,
2.515833378,117.0965576,
2.517500162,116.2966385,
2.519166708,116.9248352,
2.520833254,116.2904282,
2.522500038,117.8250732,
2.524166584,117.2879105,
2.525833368,117.0223694,
2.527500153,117.2292709,
2.529166698,117.2362595,
2.530833483,116.5814438,
2.532500029,116.622818,
2.534166813,117.1745529,
2.535833597,117.9827042,
2.537499905,116.8167267,
2.539166689,117.391098,
2.540833235,116.7738571,
2.542500019,117.9615402,
2.544166803,117.7261353,
2.545833349,117.168663,
2.547500134,116.6971588,
2.549166679,117.3958817,
2.550833464,117.035965,
2.552500248,117.4366531,
2.554166555,116.6628952,
2.55583334,116.8234711,
2.557499886,117.7379761,
2.55916667,117.8343353,
2.560833454,116.8376312,
2.5625,116.3928375,
2.564166784,116.4003143,
2.56583333,117.4555283,
2.567500114,116.8089294,
2.569166899,116.7611465,
2.570833445,116.6435547,
2.57249999,116.2166977,
2.574166536,116.1678619,
2.575833321,116.7739944,
2.577500105,116.5651627,
2.579166651,117.4440079,
2.580833435,116.9253311,
2.582499981,117.1215973,
2.584166765,116.8240967,
2.585833549,117.5238953,
2.587500095,116.4173737,
2.58916688,115.7320862,
2.590833187,117.0045547,
2.592499971,116.8371124,
2.594166756,116.0625229,
2.595833302,116.8217468,
2.597500086,116.7164612,
2.599166632,116.7498779,
2.600833416,116.925621,
2.6025002,117.1410599,
2.604166746,116.1553268,
2.60583353,117.0474319,
2.607499838,116.8216858,
2.609166622,116.9396286,
2.610833406,117.5705414,
2.612499952,118.4261169,
2.614166737,117.5884171,
2.615833282,117.3337021,
2.617500067,117.8793411,
2.619166851,116.9553833,
2.620833397,116.4657669,
2.622500181,117.3300629,
2.624166727,118.1433258,
2.625833273,117.0215988,
2.627500057,117.7193375,
2.629166603,117.1835785,
2.630833387,118.0681458,
2.632499933,116.6012344,
2.634166718,117.199028,
2.635833502,117.3561554,
2.637500048,117.0079803,
2.639166832,116.790123,
2.640833378,116.9791183,
2.642500162,117.454361,
2.644166708,116.7671432,
2.645833254,116.7267151,
2.647500038,117.8811493,
2.649166584,117.3795853,
2.650833368,116.1188354,
2.652500153,116.9186096,
2.654166698,117.5986633,
2.655833483,116.7483368,
2.657500029,117.0611038,
2.659166813,116.3550491,
2.660833597,118.4915085,
2.662499905,117.3682251,
2.664166689,118.173233,
2.665833235,117.2862091,
2.667500019,117.583992,
2.669166803,117.7866898,
2.670833349,116.8349304,
2.672500134,117.2176819,
2.674166679,117.0153351,
2.675833464,116.6875687,
2.677500248,117.5347061,
2.679166555,118.9727249,
2.68083334,116.3500214,
2.682499886,116.3732071,
2.68416667,116.477272,
2.685833454,116.7237854,
2.6875,117.2587585,
2.689166784,118.1802216,
2.69083333,116.5442505,
2.692500114,116.7562943,
2.694166899,116.5845032,
2.695833445,116.057663,
2.69749999,118.098587,
2.699166536,116.8572006,
2.700833321,117.1459045,
2.702500105,116.8840714,
2.704166651,117.2353668,
2.705833435,116.6904449,
2.707499981,116.991333,
2.709166765,116.387085,
2.710833549,117.0284958,
2.712500095,116.1628494,
2.71416688,117.5163727,
2.715833187,117.3327026,
2.717499971,116.1901779,
2.719166756,117.1264725,
2.720833302,117.9014969,
2.722500086,116.7185669,
2.724166632,116.1436996,
2.725833416,117.2496948,
2.7275002,117.1662979,
2.729166746,117.2154999,
2.73083353,117.7496109,
2.732499838,116.7420578,
2.734166622,116.332695,
2.735833406,116.8921509,
2.737499952,116.7547913,
2.739166737,116.4989319,
2.740833282,118.2295532,
2.742500067,117.7562027,
2.744166851,116.5121994,
2.745833397,116.2763901,
2.747500181,117.0738068,
2.749166727,116.6939087,
2.750833273,118.3609314,
2.752500057,117.026535,
2.754166603,117.0022659,
2.755833387,117.333786,
2.757499933,115.9575729,
2.759166718,117.6314087,
2.760833502,117.6660538,
2.762500048,116.7519455,
2.764166832,116.415451,
2.765833378,116.8776474,
2.767500162,116.6641464,
2.769166708,118.6008835,
2.770833254,116.4995041,
2.772500038,117.3972549,
2.774166584,117.5261383,
2.775833368,117.6855469,
2.777500153,118.2484665,
2.779166698,116.7941208,
2.780833483,117.2367249,
2.782500029,115.7974014,
2.784166813,117.9299469,
2.785833597,116.1335144,
2.787499905,117.2158203,
2.789166689,117.4782333,
2.790833235,116.7203217,
2.792500019,115.988884,
2.794166803,117.5378418,
2.795833349,118.9254074,
2.797500134,115.8892441,
2.799166679,116.0202484,
2.800833464,115.8380814,
2.802500248,118.1948929,
2.804166555,116.5000305,
2.80583334,116.1551208,
2.807499886,116.9244385,
2.80916667,117.4971848,
2.810833454,116.9515762,
2.8125,116.7754364,
2.814166784,117.4174194,
2.81583333,116.6344757,
2.817500114,117.0771866,
2.819166899,116.6060257,
2.820833445,117.0576477,
2.82249999,117.0063248,
2.824166536,117.0281982,
2.825833321,116.405983,
2.827500105,116.1792297,
2.829166651,116.2016907,
2.830833435,117.5479355,
2.832499981,117.7852631,
2.834166765,116.8674698,
2.835833549,116.9592056,
2.837500095,117.3015366,
2.83916688,117.083992,
2.840833187,116.5101395,
2.842499971,116.8295822,
2.844166756,117.9953461,
2.845833302,114.671608,
2.847500086,116.5641556,
2.849166632,116.6405334,
2.850833416,117.4405746,
2.8525002,117.7325897,
2.854166746,117.0063019,
2.85583353,117.5919037,
2.857499838,115.6369934,
2.859166622,116.6844101,
2.860833406,116.4354172,
2.862499952,117.2772827,
2.864166737,116.506134,
2.865833282,116.225769,
2.867500067,117.0270462,
2.869166851,117.4393005,
2.870833397,117.5640259,
2.872500181,116.8804398,
2.874166727,116.2939758,
2.875833273,117.5692978,
2.877500057,116.1181412,
2.879166603,117.154068,
2.880833387,117.3886642,
2.882499933,117.8394012,
2.884166718,117.0669937,
2.885833502,117.6680069,
2.887500048,117.2585297,
2.889166832,116.7540741,
2.890833378,116.9035187,
2.892500162,117.6996536,
2.894166708,116.8267059,
2.895833254,116.2857819,
2.897500038,117.294899,
2.899166584,116.3135376,
2.900833368,116.2289734,
2.902500153,117.4229736,
2.904166698,117.3979492,
2.905833483,116.9094849,
2.907500029,118.4294281,
2.909166813,117.1369324,
2.910833597,117.5367813,
2.912499905,116.3615494,
2.914166689,118.5000229,
2.915833235,116.9220886,
2.917500019,117.3568573,
2.919166803,117.3624268,
2.920833349,117.0943222,
2.922500134,117.6685257,
2.924166679,116.7784271,
2.925833464,116.9869461,
2.927500248,116.6644363,
2.929166555,117.3392029,
2.93083334,116.430069,
2.932499886,116.5185623,
2.93416667,116.2779312,
2.935833454,118.0908813,
2.9375,115.9914398,
2.939166784,118.4836197,
2.94083333,117.1670074,
2.942500114,117.7655334,
2.944166899,117.3670197,
2.945833445,116.9102783,
2.94749999,117.0387726,
2.949166536,116.2769241,
2.950833321,117.1563797,
2.952500105,117.918045,
2.954166651,116.5929871,
2.955833435,116.2687912,
2.957499981,116.7394409,
2.959166765,117.3145676,
2.960833549,119.0297318,
2.962500095,118.3672485,
2.96416688,116.8011932,
2.965833187,117.6327667,
2.967499971,116.5355835,
2.969166756,117.4586105,
2.970833302,118.1083908,
2.972500086,117.3030777,
2.974166632,117.0479507,
2.975833416,116.8936081,
2.9775002,116.3528671,
2.979166746,116.1253586,
2.98083353,116.5815048,
2.982499838,117.0684891,
2.984166622,116.4884644,
2.985833406,117.1480179,
2.987499952,118.0017853,
2.989166737,116.9500427,
2.990833282,117.8425446,
2.992500067,117.4158096,
2.994166851,116.4856949,
2.995833397,117.1536255,
2.997500181,116.6615677,
2.999166727,116.9447021,
3.000833273,117.6673279,
3.002500057,118.1549911,
3.004166603,117.0320892,
3.005833387,116.6638336,
3.007499933,116.8963394,
3.009166718,118.3613892,
3.010833502,116.8851624,
3.012500048,116.2992096,
3.014166832,118.6542816,
3.015833378,117.8798904,
3.017500162,116.8622818,
3.019166708,116.8334579,
3.020833254,117.7719574,
3.022500038,117.753067,
3.024166584,117.2612228,
3.025833368,117.8376999,
3.027500153,117.2184677,
3.029166698,116.8724747,
3.030833483,115.8753967,
3.032500029,116.6343384,
3.034166813,116.5070877,
3.035833597,116.1433029,
3.037499905,116.4725571,
3.039166689,115.6249237,
3.040833235,116.6372604,
3.042500019,116.764801,
3.044166803,117.3950424,
3.045833349,116.8251266,
3.047500134,117.1698303,
3.049166679,116.7594528,
3.050833464,116.9993134,
3.052500248,116.6151047,
3.054166555,117.1945953,
3.05583334,116.9038315,
3.057499886,116.4813843,
3.05916667,116.6964264,
3.060833454,116.4979401,
3.0625,116.2656708,
3.064166784,117.3636169,
3.06583333,117.2022247,
3.067500114,117.1504135,
3.069166899,116.8511353,
3.070833445,117.1961365,
3.07249999,117.2559433,
3.074166536,116.0950546,
3.075833321,116.1719818,
3.077500105,117.2686844,
3.079166651,117.3239059,
3.080833435,116.9441528,
3.082499981,116.4366837,
3.084166765,116.7164001,
3.085833549,116.8310699,
3.087500095,117.1099014,
3.08916688,116.4203186,
3.090833187,116.5996475,
3.092499971,116.7733307,
3.094166756,116.9651794,
3.095833302,117.7294235,
3.097500086,117.2136765,
3.099166632,116.9003448,
3.100833416,116.2600708,
3.1025002,116.9600296,
3.104166746,116.2545624,
3.10583353,117.920311,
3.107499838,117.5418854,
3.109166622,116.9678802,
3.110833406,116.8422012,
3.112499952,117.908432,

