1,,
Time (min),Intensity (a.u.),
0.0008333333535,224.0881653,
0.002500000177,223.7195435,
0.004166666884,226.2257538,
0.005833333358,224.357605,
0.007500000298,225.1986084,
0.009166667238,225.3787537,
0.01083333418,224.6037292,
0.01250000019,225.8267212,
0.01416666713,225.1963959,
0.01583333313,225.467926,
0.01750000194,225.203064,
0.01916666701,226.8999481,
0.02083333395,225.7649231,
0.02250000089,225.1658783,
0.02416666783,225.1512451,
0.02583333477,225.8257904,
0.02749999985,225.314682,
0.02916666679,225.561615,
0.03083333373,226.1247711,
0.03250000253,225.3127594,
0.03416666761,225.1265564,
0.03583333641,227.0745544,
0.03750000149,225.3812561,
0.03916667029,226.0892029,
0.04083333537,226.7740326,
0.04250000045,226.7405396,
0.04416666925,225.8896027,
0.04583333433,225.5687866,
0.04750000313,225.579422,
0.04916666821,225.2922668,
0.05083333328,228.7495575,
0.05250000209,225.2160034,
0.05416666716,225.6050262,
0.05583333597,225.0047302,
0.05750000104,225.153717,
0.05916666612,225.5860901,
0.06083333492,223.7973022,
0.0625,225.0116119,
0.06416667253,228.2940369,
0.0658333376,225.1431122,
0.06750000268,225.0330353,
0.06916666776,226.0032959,
0.07083333284,225.6109619,
0.07249999791,224.5719452,
0.07416667044,224.7750854,
0.07583333552,226.6033783,
0.0775000006,224.8727417,
0.07916666567,224.6392975,
0.08083333075,226.8678589,
0.08250000328,228.3602142,
0.08416666836,225.7836456,
0.08583333343,224.2366486,
0.08749999851,224.9009399,
0.08916666359,226.7333679,
0.09083333611,224.1573334,
0.09250000119,226.3695221,
0.09416666627,224.602829,
0.09583333135,224.3463287,
0.09749999642,224.1025848,
0.09916666895,225.036026,
0.100833334,223.5698395,
0.1024999991,225.3878632,
0.1041666642,224.5097809,
0.1058333293,224.6928711,
0.1075000018,225.5371094,
0.1091666669,226.7327728,
0.1108333319,226.5193329,
0.112499997,226.2689362,
0.1141666621,224.5575409,
0.1158333346,225.287735,
0.1174999997,225.7877197,
0.1191666648,224.7972412,
0.1208333299,225.9175262,
0.1224999949,223.8391571,
0.1241666749,224.9573822,
0.1258333325,225.4767609,
0.1274999976,225.2203979,
0.1291666627,224.5789642,
0.1308333278,225.1265564,
0.1325000077,225.1795502,
0.1341666728,226.3245087,
0.1358333379,225.8523102,
0.137500003,226.30513,
0.1391666681,224.3972626,
0.1408333331,225.8328094,
0.1424999982,224.1179962,
0.1441666782,224.9346771,
0.1458333284,226.6531067,
0.1475000083,225.8128662,
0.1491666585,225.0569763,
0.1508333385,224.360733,
0.1525000036,226.286972,
0.1541666687,226.2864227,
0.1558333337,227.1926422,
0.1574999988,227.8926544,
0.1591666639,225.0920105,
0.1608333439,225.3966064,
0.162499994,225.4407654,
0.164166674,224.8099976,
0.1658333242,225.3034821,
0.1675000042,225.7038879,
0.1691666692,225.280838,
0.1708333343,226.0466003,
0.1724999994,226.8444366,
0.1741666645,224.834671,
0.1758333296,225.3745422,
0.1775000095,225.9694061,
0.1791666597,224.2245026,
0.1808333397,227.0130005,
0.1824999899,225.3371887,
0.1841666698,224.7796478,
0.1858333498,226.1356354,
0.1875,226.4577789,
0.18916668,226.7477722,
0.1908333302,225.1595459,
0.1925000101,225.7836609,
0.1941666752,226.0228119,
0.1958333403,225.3261719,
0.1975000054,227.7138214,
0.1991666704,224.9424438,
0.2008333355,225.4673462,
0.2025000155,226.6147461,
0.2041666657,225.7124481,
0.2058333457,225.9049683,
0.2074999958,225.967392,
0.2091666758,227.8334656,
0.2108333409,225.1821899,
0.212500006,226.8204193,
0.214166671,225.6631622,
0.2158333361,226.0170746,
0.2175000012,225.4240723,
0.2191666812,225.8249359,
0.2208333313,225.0547638,
0.2225000113,225.0964966,
0.2241666615,225.3001556,
0.2258333415,224.8432922,
0.2275000066,225.0138702,
0.2291666716,225.494873,
0.2308333367,225.2119751,
0.2325000018,224.6823578,
0.2341666669,224.914978,
0.2358333468,225.3619995,
0.237499997,225.5962219,
0.239166677,225.6339417,
0.2408333272,226.382843,
0.2425000072,225.493042,
0.2441666722,227.3001251,
0.2458333373,224.3068695,
0.2475000024,226.1160126,
0.2491666675,226.6646881,
0.2508333325,224.6685333,
0.2524999976,224.3113708,
0.2541666627,226.3457642,
0.2558333278,224.4881744,
0.2574999928,225.8671875,
0.2591666579,224.2540741,
0.2608333528,223.4759521,
0.2624999881,224.7563934,
0.264166683,224.3946533,
0.2658333182,226.2896118,
0.2675000131,225.5635376,
0.2691666484,224.7438965,
0.2708333433,224.8750458,
0.2725000083,225.983139,
0.2741666734,226.4465027,
0.2758333385,225.8843536,
0.2775000036,225.2896729,
0.2791666687,225.9003601,
0.2808333337,224.9840851,
0.2824999988,224.5034637,
0.2841666937,224.4859009,
0.285833329,225.6899872,
0.287499994,225.7801666,
0.2891666591,225.9117737,
0.290833354,225.2945404,
0.2925000191,224.1744232,
0.2941666543,224.1570129,
0.2958333194,224.1611481,
0.2975000143,225.4127045,
0.2991666794,225.1533813,
0.3008333445,225.95961,
0.3024999797,224.15065,
0.3041666746,225.5108032,
0.3058333397,224.9100037,
0.3075000048,225.7990265,
0.3091666996,224.5747223,
0.3108333349,225.0142975,
0.3125,226.3698425,
0.3141666651,224.4483337,
0.31583336,226.0214844,
0.317500025,224.4998169,
0.3191666603,225.1458893,
0.3208333254,227.8845062,
0.3225000203,224.6702576,
0.3241666853,225.4809723,
0.3258333504,224.9391022,
0.3274999857,225.1189575,
0.3291666806,226.1211243,
0.3308333457,226.0726929,
0.3325000107,224.6503906,
0.3341666758,224.87117,
0.3358333409,225.2296295,
0.337500006,225.2550049,
0.339166671,222.879303,
0.3408333361,226.131958,
0.342500031,226.1542816,
0.3441666663,224.6690674,
0.3458333313,225.0167084,
0.3474999964,223.9429321,
0.3491666913,225.6686707,
0.3508333564,225.2852173,
0.3524999917,226.3513489,
0.3541666567,223.7258759,
0.3558333516,225.0845184,
0.3575000167,227.0837097,
0.3591666818,226.3959198,
0.360833317,224.9696045,
0.3625000119,224.5693512,
0.364166677,225.2942352,
0.3658333421,224.7500305,
0.3675000072,224.0594177,
0.3691666722,227.7967834,
0.3708333373,226.3556824,
0.3725000024,224.9636536,
0.3741666675,225.4733429,
0.3758333623,224.3492737,
0.3774999976,224.5304871,
0.3791666627,224.8787842,
0.3808333278,225.4286041,
0.3825000226,226.2286072,
0.3841666877,225.2950287,
0.385833323,224.7249908,
0.3874999881,224.7670135,
0.389166683,225.8638306,
0.390833348,224.4703064,
0.3925000131,224.528244,
0.3941666484,225.7471008,
0.3958333433,224.7749939,
0.3975000083,225.9957581,
0.3991666734,225.4709625,
0.4008333385,226.0844269,
0.4025000036,224.7993927,
0.4041666687,224.5887604,
0.4058333337,226.0744476,
0.4074999988,225.4087677,
0.4091666937,224.4679871,
0.410833329,224.8395233,
0.412499994,225.5731659,
0.4141666591,225.2583923,
0.415833354,224.6137695,
0.4175000191,225.5400543,
0.4191666543,226.9436646,
0.4208333194,224.7040253,
0.4225000143,225.1218872,
0.4241666794,226.7027588,
0.4258333445,224.7496643,
0.4274999797,226.1951447,
0.4291666746,225.6580963,
0.4308333397,224.6854401,
0.4325000048,225.9369965,
0.4341666996,224.8248901,
0.4358333349,225.8258667,
0.4375,224.5398712,
0.4391666651,224.2691956,
0.44083336,223.1470795,
0.442500025,224.3164673,
0.4441666603,225.4176331,
0.4458333254,225.3408508,
0.4475000203,224.1652832,
0.4491666853,227.0083313,
0.4508333504,225.6410828,
0.4524999857,226.3802338,
0.4541666806,225.2464752,
0.4558333457,225.2256622,
0.4575000107,225.5928802,
0.4591666758,225.4025421,
0.4608333409,223.8944092,
0.462500006,225.4841461,
0.464166671,226.9838409,
0.4658333361,226.1559448,
0.467500031,224.9454498,
0.4691666663,225.1836395,
0.4708333313,224.3348846,
0.4724999964,226.6547546,
0.4741666913,225.0559235,
0.4758333564,224.1377258,
0.4774999917,226.9003601,
0.4791666567,226.0094452,
0.4808333516,225.9396667,
0.4825000167,225.9798737,
0.4841666818,224.8089905,
0.485833317,225.3300018,
0.4875000119,225.4330292,
0.489166677,225.39151,
0.4908333421,225.6099396,
0.4925000072,225.4962158,
0.4941666722,225.331543,
0.4958333373,225.3159943,
0.4975000024,225.0060883,
0.4991666675,227.242157,
0.5008333325,225.4494476,
0.5024999976,225.2107697,
0.5041666627,224.9564819,
0.5058333278,225.0129547,
0.5074999928,224.5376892,
0.5091666579,226.7060547,
0.510833323,224.2562103,
0.5124999881,226.9004364,
0.5141666532,226.1226959,
0.5158333182,226.0392456,
0.5175000429,225.6986084,
0.5191666484,223.7489624,
0.5208333135,224.0675964,
0.5224999785,226.6894226,
0.5241667032,225.7381897,
0.5258333683,226.4404297,
0.5274999738,225.4247589,
0.5291666389,225.3786774,
0.5308333635,224.5752411,
0.5325000286,225.7721405,
0.5341666341,224.232193,
0.5358333588,225.0396423,
0.5375000238,225.6880188,
0.5391666889,226.6203613,
0.540833354,223.4398346,
0.5424999595,224.7039948,
0.5441666842,224.5996399,
0.5458333492,224.6709442,
0.5475000143,224.6338348,
0.5491666794,225.1380615,
0.5508333445,224.1052246,
0.5525000095,225.2342377,
0.5541666746,224.1684723,
0.5558333993,224.2024994,
0.5575000048,225.6412659,
0.5591666698,225.8026886,
0.5608333349,224.083847,
0.5625,224.8830261,
0.5641667247,224.8841705,
0.5658333302,225.5873566,
0.5674999952,225.0818939,
0.5691667199,224.6517944,
0.5708333254,227.0475922,
0.5725000501,225.081665,
0.5741666555,226.6958771,
0.5758333206,224.5559082,
0.5775000453,225.1710815,
0.5791666508,226.2400665,
0.5808333755,225.1725311,
0.5825000405,224.3118744,
0.584166646,224.767868,
0.5858333707,225.1008453,
0.5874999762,225.5312653,
0.5891667008,225.3236542,
0.5908333659,224.2874146,
0.5924999714,223.4750977,
0.5941666961,224.5818329,
0.5958333611,223.7109528,
0.5975000262,224.5754852,
0.5991666913,225.1528015,
0.6008332968,225.2238007,
0.6025000215,226.2280579,
0.6041666865,224.8415833,
0.6058333516,224.8667755,
0.6075000167,225.4795227,
0.6091666818,224.4687805,
0.6108333468,225.8601227,
0.6125000119,224.7196503,
0.614166677,225.8840942,
0.6158333421,225.3863983,
0.6175000072,224.3854218,
0.6191666722,223.9828033,
0.6208333373,225.5581207,
0.622500062,226.7263031,
0.6241666675,224.8273926,
0.6258333325,225.0682526,
0.6274999976,224.2228699,
0.6291666627,224.5782623,
0.6308333874,225.911438,
0.6324999928,225.7911377,
0.6341666579,224.491272,
0.6358333826,224.8021698,
0.6374999881,225.7843933,
0.6391667128,224.9903564,
0.6408333182,224.6457367,
0.6424999833,224.9009247,
0.644166708,225.2228088,
0.6458333135,225.1782837,
0.6475000381,226.8884583,
0.6491667032,224.8894043,
0.6508333087,223.6758728,
0.6525000334,224.4454498,
0.6541666389,226.5027466,
0.6558333635,226.1574707,
0.6575000286,225.4295807,
0.6591666341,225.2509155,
0.6608333588,224.487793,
0.6625000238,224.2098999,
0.6641666889,227.3094482,
0.665833354,224.9903412,
0.6674999595,225.6278992,
0.6691666842,226.0109558,
0.6708333492,224.5706329,
0.6725000143,226.989975,
0.6741666794,225.5055389,
0.6758333445,224.9884644,
0.6775000095,226.002121,
0.6791666746,227.1009521,
0.6808333993,226.1493988,
0.6825000048,226.9211731,
0.6841666698,224.9868927,
0.6858333349,225.9552765,
0.6875,225.1225586,
0.6891667247,225.4856262,
0.6908333302,224.6186829,
0.6924999952,226.1495667,
0.6941667199,226.0144501,
0.6958333254,226.1918945,
0.6975000501,225.1926575,
0.6991666555,225.6057434,
0.7008333206,226.0784607,
0.7025000453,226.4013824,
0.7041666508,225.2778778,
0.7058333755,224.8670197,
0.7075000405,226.2305756,
0.709166646,222.462326,
0.7108333707,225.2817535,
0.7124999762,225.6644135,
0.7141667008,225.9750214,
0.7158333659,223.9348297,
0.7174999714,226.223938,
0.7191666961,225.4866791,
0.7208333611,225.3074493,
0.7225000262,224.9848328,
0.7241666913,224.5709991,
0.7258332968,224.7958069,
0.7275000215,225.9612274,
0.7291666865,223.2560425,
0.7308333516,224.4498444,
0.7325000167,225.0585785,
0.7341666818,226.5038605,
0.7358333468,224.8070831,
0.7375000119,224.8161316,
0.739166677,224.3618469,
0.7408333421,225.4157104,
0.7425000072,225.2064056,
0.7441666722,225.2513123,
0.7458333373,225.4517059,
0.747500062,225.7493591,
0.7491666675,223.9624634,
0.7508333325,225.7579651,
0.7524999976,225.1292419,
0.7541666627,225.3463593,
0.7558333874,225.1376038,
0.7574999928,225.5720215,
0.7591666579,225.6958923,
0.7608333826,225.856308,
0.7624999881,226.7601471,
0.7641667128,225.8722534,
0.7658333182,225.4720764,
0.7674999833,226.0437927,
0.769166708,225.7182159,
0.7708333135,224.8903961,
0.7725000381,225.4169159,
0.7741667032,224.7233124,
0.7758333087,224.8026428,
0.7775000334,225.3744812,
0.7791666389,224.392868,
0.7808333635,225.9803925,
0.7825000286,226.5523987,
0.7841666341,224.3337097,
0.7858333588,226.6083374,
0.7875000238,225.3712463,
0.7891666889,225.2092285,
0.790833354,225.5183563,
0.7924999595,225.1348419,
0.7941666842,224.4360504,
0.7958333492,224.0975037,
0.7975000143,225.2907562,
0.7991666794,225.4169617,
0.8008333445,225.8575745,
0.8025000095,224.2623138,
0.8041666746,226.0287323,
0.8058333993,225.1503296,
0.8075000048,224.9418945,
0.8091666698,224.1295776,
0.8108333349,224.9089355,
0.8125,225.2459564,
0.8141667247,225.5710144,
0.8158333302,225.7339783,
0.8174999952,225.1114655,
0.8191667199,225.4774017,
0.8208333254,224.3101959,
0.8225000501,223.6489258,
0.8241666555,225.9588318,
0.8258333206,224.7735901,
0.8275000453,224.3662415,
0.8291666508,224.1015625,
0.8308333755,225.1068726,
0.8325000405,225.2416382,
0.834166646,225.7788696,
0.8358333707,224.9075317,
0.8374999762,227.0114594,
0.8391667008,225.0787811,
0.8408333659,224.7556458,
0.8424999714,225.3477631,
0.8441666961,224.1535645,
0.8458333611,224.353241,
0.8475000262,224.3302155,
0.8491666913,225.6105499,
0.8508332968,224.8265533,
0.8525000215,226.9590149,
0.8541666865,225.8932495,
0.8558333516,225.2345734,
0.8575000167,226.5727234,
0.8591666818,224.0769348,
0.8608333468,224.401825,
0.8625000119,227.6532288,
0.864166677,227.7284393,
0.8658333421,224.9866486,
0.8675000072,226.1170959,
0.8691666722,225.8609161,
0.8708333373,227.516922,
0.872500062,226.4751587,
0.8741666675,224.3405762,
0.8758333325,227.4542542,
0.8774999976,223.805191,
0.8791666627,222.5916595,
0.8808333874,225.736618,
0.8824999928,224.5923767,
0.8841666579,224.8995056,
0.8858333826,226.3399353,
0.8874999881,224.1859283,
0.8891667128,226.4203491,
0.8908333182,223.3418884,
0.8924999833,225.1907043,
0.894166708,225.4026489,
0.8958333135,224.2101593,
0.8975000381,225.7776184,
0.8991667032,225.7975616,
0.9008333087,225.6743927,
0.9025000334,224.2206573,
0.9041666389,225.6402588,
0.9058333635,224.9797211,
0.9075000286,223.0782776,
0.9091666341,224.9757996,
0.9108333588,224.749939,
0.9125000238,224.6112061,
0.9141666889,225.4339752,
0.915833354,224.9703369,
0.9174999595,225.2680817,
0.9191666842,224.6224823,
0.9208333492,224.9794464,
0.9225000143,224.6035004,
0.9241666794,224.9268494,
0.9258333445,224.1914673,
0.9275000095,227.0353394,
0.9291666746,224.4669037,
0.9308333993,223.8325806,
0.9325000048,225.4503937,
0.9341666698,224.3274078,
0.9358333349,226.3230438,
0.9375,224.3056488,
0.9391667247,225.6696472,
0.9408333302,222.9301605,
0.9424999952,224.8852539,
0.9441667199,225.1723938,
0.9458333254,226.0048523,
0.9475000501,223.7105255,
0.9491666555,224.3457794,
0.9508333206,225.6593628,
0.9525000453,224.9317017,
0.9541666508,224.2127991,
0.9558333755,225.4151917,
0.9575000405,225.9175568,
0.959166646,225.5614014,
0.9608333707,223.6023407,
0.9624999762,226.2281036,
0.9641667008,226.2804108,
0.9658333659,225.5364532,
0.9674999714,223.0123596,
0.9691666961,225.8566589,
0.9708333611,224.2828979,
0.9725000262,224.8721313,
0.9741666913,225.4243164,
0.9758332968,224.521759,
0.9775000215,223.8482971,
0.9791666865,223.4475098,
0.9808333516,225.7538452,
0.9825000167,225.0287628,
0.9841666818,223.1387024,
0.9858333468,224.2024841,
0.9875000119,224.6232605,
0.989166677,225.0153198,
0.9908333421,225.4503632,
0.9925000072,223.7782593,
0.9941666722,225.0272064,
0.9958333373,224.3889465,
0.997500062,225.1860199,
0.9991666675,224.5057526,
1.000833273,225.2759399,
1.002500057,223.529129,
1.004166722,224.1225739,
1.005833387,225.3570709,
1.007500052,225.2700806,
1.009166598,223.3567657,
1.010833383,223.357254,
1.012500048,224.5231171,
1.014166713,226.5968933,
1.015833378,224.6846466,
1.017500043,225.0501099,
1.019166708,225.3355713,
1.020833373,225.1112213,
1.022500038,225.361908,
1.024166703,224.6221924,
1.025833368,223.9982452,
1.027500033,225.9726257,
1.029166698,225.2352142,
1.030833364,224.5207062,
1.032500029,224.7082367,
1.034166694,224.5549164,
1.035833359,225.8000641,
1.037500024,224.2422333,
1.039166689,224.4687195,
1.040833354,224.2395172,
1.042500019,225.838623,
1.044166684,224.4040222,
1.045833349,226.2885895,
1.047500014,223.3183746,
1.049166679,222.8465424,
1.050833344,224.6384125,
1.05250001,225.0568085,
1.054166675,225.1112366,
1.05583334,224.9790802,
1.057500005,226.4598389,
1.05916667,224.9948578,
1.060833335,223.5449524,
1.0625,226.5170593,
1.064166665,225.9534912,
1.06583333,224.3596802,
1.067499995,223.7157898,
1.06916666,225.418396,
1.070833325,225.4313812,
1.07249999,225.7272339,
1.074166775,225.1300964,
1.07583344,224.9631042,
1.077499986,224.2891083,
1.079166651,224.1710663,
1.080833316,225.7137604,
1.0825001,226.3882446,
1.084166765,225.4844666,
1.085833311,224.3059235,
1.087499976,223.9811249,
1.089166641,224.612442,
1.090833426,225.697403,
1.092500091,225.5983276,
1.094166636,225.690094,
1.095833302,223.798996,
1.097499967,225.0204163,
1.099166751,224.1029663,
1.100833416,223.0976105,
1.102500081,223.6486053,
1.104166627,224.5326385,
1.105833292,225.0931702,
1.107500076,224.6988983,
1.109166741,224.3674469,
1.110833406,223.4568634,
1.112499952,225.6582794,
1.114166617,225.0278625,
1.115833402,224.9781494,
1.117500067,223.9385986,
1.119166732,224.0201111,
1.120833278,224.7195129,
1.122499943,226.4909058,
1.124166727,224.3799133,
1.125833392,225.4344177,
1.127500057,223.8479614,
1.129166722,225.3182678,
1.130833268,225.0999908,
1.132500052,224.4765472,
1.134166718,224.3703003,
1.135833383,225.5812683,
1.137500048,224.6856537,
1.139166594,225.993103,
1.140833378,224.8697357,
1.142500043,224.988739,
1.144166708,223.5695496,
1.145833373,226.0563965,
1.147499919,224.5171204,
1.149166703,224.1178436,
1.150833368,224.2519226,
1.152500033,224.2571716,
1.154166698,224.1113892,
1.155833364,223.7422333,
1.157500029,224.3745422,
1.159166694,225.6010284,
1.160833359,224.1578522,
1.162500024,225.332428,
1.164166689,224.7084351,
1.165833354,224.5007324,
1.167500019,224.6617584,
1.169166684,223.7835236,
1.170833349,224.7039948,
1.172500014,224.5085144,
1.174166799,224.7384186,
1.175833344,224.7544556,
1.17750001,224.2184448,
1.179166675,225.2118835,
1.18083334,224.0616913,
1.182500124,224.6368866,
1.18416667,224.4179535,
1.185833335,225.0171967,
1.1875,224.2255554,
1.189166665,224.8503113,
1.190833449,225.4534912,
1.192499995,224.1048737,
1.19416666,223.3720703,
1.195833325,225.3208618,
1.19749999,224.727005,
1.199166775,224.8655243,
1.20083344,224.0918121,
1.202499986,226.3102264,
1.204166651,225.1608887,
1.205833316,225.0669861,
1.2075001,224.2685852,
1.209166765,226.6341553,
1.210833311,225.4173889,
1.212499976,224.7806396,
1.214166641,225.3457336,
1.215833426,226.7532043,
1.217500091,224.9352875,
1.219166636,223.4093933,
1.220833302,225.3398132,
1.222499967,226.1996002,
1.224166751,224.9119873,
1.225833416,223.7263489,
1.227500081,224.4733429,
1.229166627,224.0227051,
1.230833292,225.231781,
1.232500076,224.6593933,
1.234166741,223.9198608,
1.235833406,224.2466583,
1.237499952,223.6136627,
1.239166617,224.7705841,
1.240833402,223.279892,
1.242500067,224.6151123,
1.244166732,224.4582977,
1.245833278,224.3935242,
1.247499943,224.7956085,
1.249166727,224.2261505,
1.250833392,223.9676208,
1.252500057,224.8331451,
1.254166722,224.4818573,
1.255833268,224.9353638,
1.257500052,224.8154907,
1.259166718,223.5188599,
1.260833383,225.0569763,
1.262500048,224.842453,
1.264166594,223.8029633,
1.265833378,226.2281647,
1.267500043,224.5100403,
1.269166708,223.6429901,
1.270833373,225.3088074,
1.272499919,225.3956299,
1.274166703,223.9414368,
1.275833368,224.2612,
1.277500033,224.8688965,
1.279166698,225.4681396,
1.280833364,225.104126,
1.282500029,225.3190613,
1.284166694,225.6291504,
1.285833359,224.1225586,
1.287500024,225.7203064,
1.289166689,224.6694183,
1.290833354,223.2854156,
1.292500019,225.3890686,
1.294166684,223.8004608,
1.295833349,223.3222809,
1.297500014,224.5801544,
1.299166799,223.8553162,
1.300833344,223.1874237,
1.30250001,225.3892059,
1.304166675,219.3703766,
1.30583334,224.6190643,
1.307500124,225.0591888,
1.30916667,223.4505615,
1.310833335,223.7810364,
1.3125,225.5619507,
1.314166665,223.5839539,
1.315833449,224.3369293,
1.317499995,225.8627777,
1.31916666,225.2669067,
1.320833325,223.9145966,
1.32249999,223.6911316,
1.324166775,225.3720093,
1.32583344,225.4526062,
1.327499986,224.0067291,
1.329166651,225.3638458,
1.330833316,224.7000885,
1.3325001,225.1787109,
1.334166765,224.043869,
1.335833311,222.6221313,
1.337499976,223.9297333,
1.339166641,225.4187927,
1.340833426,224.819046,
1.342500091,224.2469177,
1.344166636,222.7970734,
1.345833302,224.941391,
1.347499967,223.1250763,
1.349166751,223.5381622,
1.350833416,225.0634613,
1.352500081,224.6287231,
1.354166627,224.1839142,
1.355833292,225.1119537,
1.357500076,224.916275,
1.359166741,225.3120575,
1.360833406,224.7143097,
1.362499952,224.7570496,
1.364166617,224.3596191,
1.365833402,224.1006317,
1.367500067,223.2099915,
1.369166732,225.2858582,
1.370833278,226.2460022,
1.372499943,224.3097534,
1.374166727,224.0764618,
1.375833392,224.9652863,
1.377500057,225.145752,
1.379166722,223.9107513,
1.380833268,223.6634979,
1.382500052,224.1727448,
1.384166718,225.2914581,
1.385833383,224.9108429,
1.387500048,224.361908,
1.389166594,225.5202789,
1.390833378,225.2071838,
1.392500043,225.1804199,
1.394166708,224.0922699,
1.395833373,224.6732178,
1.397499919,224.4993439,
1.399166703,224.954071,
1.400833368,225.0080414,
1.402500033,224.8018188,
1.404166698,224.5136108,
1.405833364,226.0387421,
1.407500029,223.7165833,
1.409166694,223.489563,
1.410833359,225.5092621,
1.412500024,224.712204,
1.414166689,226.2251129,
1.415833354,223.3202667,
1.417500019,223.9278412,
1.419166684,224.2345734,
1.420833349,224.8916321,
1.422500014,224.1818085,
1.424166799,224.5045471,
1.425833344,224.8976593,
1.42750001,226.6095886,
1.429166675,226.7091827,
1.43083334,224.1023102,
1.432500124,223.2909393,
1.43416667,224.0633545,
1.435833335,225.3642578,
1.4375,224.778244,
1.439166665,225.7107849,
1.440833449,224.382309,
1.442499995,222.8470612,
1.44416666,223.8916016,
1.445833325,224.2402802,
1.44749999,224.299057,
1.449166775,224.3761902,
1.45083344,224.7648315,
1.452499986,224.4729004,
1.454166651,224.0616913,
1.455833316,222.5152283,
1.4575001,225.9369202,
1.459166765,225.197937,
1.460833311,223.1860046,
1.462499976,223.9285889,
1.464166641,223.5572662,
1.465833426,224.5217438,
1.467500091,225.4417419,
1.469166636,224.5078278,
1.470833302,224.2827911,
1.472499967,225.7557526,
1.474166751,225.1733398,
1.475833416,222.7920837,
1.477500081,222.3652496,
1.479166627,225.0115662,
1.480833292,224.6081238,
1.482500076,224.6538849,
1.484166741,225.1772308,
1.485833406,225.4756775,
1.487499952,224.5945892,
1.489166617,225.4659882,
1.490833402,224.975296,
1.492500067,224.3034821,
1.494166732,223.4351044,
1.495833278,224.1924896,
1.497499943,224.8641815,
1.499166727,225.1885529,
1.500833392,224.9787598,
1.502500057,225.1596375,
1.504166722,224.6624756,
1.505833268,225.2535095,
1.507500052,223.8448944,
1.509166718,225.6875305,
1.510833383,224.3340912,
1.512500048,224.6632843,
1.514166594,225.7619476,
1.515833378,223.2294769,
1.517500043,223.8733215,
1.519166708,224.6782532,
1.520833373,224.5382996,
1.522499919,224.9828949,
1.524166703,224.931366,
1.525833368,225.6946564,
1.527500033,223.6980286,
1.529166698,224.4909058,
1.530833364,225.7484894,
1.532500029,226.0523224,
1.534166694,225.7544556,
1.535833359,224.5491638,
1.537500024,225.9726257,
1.539166689,224.2598419,
1.540833354,225.3654327,
1.542500019,224.7461853,
1.544166684,225.1511536,
1.545833349,223.5920258,
1.547500014,225.5848999,
1.549166799,225.2437897,
1.550833344,223.143219,
1.55250001,225.5825348,
1.554166675,224.3653564,
1.55583334,223.5418396,
1.557500124,224.4147339,
1.55916667,223.7652435,
1.560833335,224.0090027,
1.5625,223.2855072,
1.564166665,223.5657959,
1.565833449,224.5260315,
1.567499995,223.9800262,
1.56916666,225.5239716,
1.570833325,225.5281677,
1.57249999,223.9240723,
1.574166775,224.1825256,
1.57583344,225.2461548,
1.577499986,224.1151581,
1.579166651,223.8658142,
1.580833316,224.1239471,
1.5825001,224.8870697,
1.584166765,226.2819824,
1.585833311,225.1216125,
1.587499976,223.2879486,
1.589166641,224.7350769,
1.590833426,226.7722321,
1.592500091,224.1950836,
1.594166636,225.1730347,
1.595833302,224.1535034,
1.597499967,225.9464722,
1.599166751,226.4499512,
1.600833416,225.2125397,
1.602500081,225.4620514,
1.604166627,225.8412018,
1.605833292,225.3974762,
1.607500076,223.6018829,
1.609166741,225.016449,
1.610833406,224.6569366,
1.612499952,225.6381378,
1.614166617,224.6612091,
1.615833402,224.9158478,
1.617500067,223.7251892,
1.619166732,224.4758759,
1.620833278,223.1405945,
1.622499943,224.0899506,
1.624166727,224.7180023,
1.625833392,223.9231873,
1.627500057,222.9050293,
1.629166722,224.879715,
1.630833268,224.5982666,
1.632500052,223.9021606,
1.634166718,223.1645813,
1.635833383,226.0350037,
1.637500048,224.8399048,
1.639166594,225.2231598,
1.640833378,224.668045,
1.642500043,225.2993011,
1.644166708,224.5935211,
1.645833373,225.578537,
1.647499919,225.0018158,
1.649166703,224.4142761,
1.650833368,223.4969788,
1.652500033,224.7975922,
1.654166698,224.3613281,
1.655833364,225.0102081,
1.657500029,224.2935944,
1.659166694,225.2006073,
1.660833359,224.6309662,
1.662500024,223.759079,
1.664166689,224.3896179,
1.665833354,224.2165222,
1.667500019,224.0188293,
1.669166684,223.3874512,
1.670833349,223.6398621,
1.672500014,224.5151978,
1.674166799,223.7502899,
1.675833344,223.7827606,
1.67750001,224.9181824,
1.679166675,223.420517,
1.68083334,224.1147919,
1.682500124,223.268219,
1.68416667,224.0712585,
1.685833335,223.9958344,
1.6875,223.7854462,
1.689166665,225.2887878,
1.690833449,224.2920227,
1.692499995,224.9281769,
1.69416666,224.6289063,
1.695833325,225.3990936,
1.69749999,224.3824463,
1.699166775,225.7599335,
1.70083344,224.2736206,
1.702499986,224.131546,
1.704166651,224.5563354,
1.705833316,224.1068878,
1.7075001,223.8361511,
1.709166765,222.8244019,
1.710833311,225.0001373,
1.712499976,226.0670471,
1.714166641,224.0260162,
1.715833426,225.5611572,
1.717500091,224.3922577,
1.719166636,225.1147003,
1.720833302,223.5190735,
1.722499967,222.9634857,
1.724166751,223.7872162,
1.725833416,224.2472992,
1.727500081,224.5589294,
1.729166627,225.3352661,
1.730833292,225.2127838,
1.732500076,225.6289063,
1.734166741,224.1546326,
1.735833406,223.6400452,
1.737499952,225.384201,
1.739166617,223.3808136,
1.740833402,224.8906097,
1.742500067,224.1472321,
1.744166732,224.084198,
1.745833278,224.0826721,
1.747499943,224.4172668,
1.749166727,223.2209473,
1.750833392,225.125351,
1.752500057,225.5290375,
1.754166722,224.3296509,
1.755833268,225.1125031,
1.757500052,223.5900726,
1.759166718,224.8551025,
1.760833383,224.7519684,
1.762500048,224.7146301,
1.764166594,224.116745,
1.765833378,224.7062836,
1.767500043,223.1417847,
1.769166708,224.0872345,
1.770833373,224.3290405,
1.772499919,223.5540771,
1.774166703,224.8515778,
1.775833368,223.3476563,
1.777500033,224.1983337,
1.779166698,226.3772583,
1.780833364,222.3771973,
1.782500029,224.7619781,
1.784166694,222.4986877,
1.785833359,225.1270599,
1.787500024,223.5159302,
1.789166689,222.8879547,
1.790833354,222.8713379,
1.792500019,224.4822235,
1.794166684,224.8005829,
1.795833349,223.5723572,
1.797500014,225.9143219,
1.799166799,224.5406342,
1.800833344,224.1950531,
1.80250001,224.6770935,
1.804166675,224.7919464,
1.80583334,222.6899567,
1.807500124,223.8521423,
1.80916667,222.9028168,
1.810833335,223.0278778,
1.8125,225.0773468,
1.814166665,225.2495422,
1.815833449,224.9324646,
1.817499995,224.8621826,
1.81916666,225.3695374,
1.820833325,223.6500702,
1.82249999,223.6332245,
1.824166775,223.8677673,
1.82583344,223.4046326,
1.827499986,223.8567047,
1.829166651,223.6533508,
1.830833316,223.3949127,
1.8325001,223.4955597,
1.834166765,224.9258728,
1.835833311,223.8061066,
1.837499976,223.4682159,
1.839166641,225.0663147,
1.840833426,224.9375763,
1.842500091,222.8069305,
1.844166636,225.1006317,
1.845833302,223.8886871,
1.847499967,224.5353241,
1.849166751,225.5759583,
1.850833416,225.1766052,
1.852500081,222.9340363,
1.854166627,223.1508179,
1.855833292,223.5950165,
1.857500076,223.7199402,
1.859166741,222.6022339,
1.860833406,224.536438,
1.862499952,224.065155,
1.864166617,224.1355743,
1.865833402,223.0333405,
1.867500067,224.8310699,
1.869166732,223.6570892,
1.870833278,224.4596252,
1.872499943,222.3865509,
1.874166727,224.0693207,
1.875833392,223.7499542,
1.877500057,224.4511566,
1.879166722,224.8849182,
1.880833268,224.1128082,
1.882500052,224.4698181,
1.884166718,224.7779999,
1.885833383,223.8265533,
1.887500048,225.4067841,
1.889166594,223.6890717,
1.890833378,227.0810394,
1.892500043,202.6953735,
1.894166708,190.0451202,
1.895833373,188.311142,
1.897499919,177.4237061,
1.899166703,175.5076599,
1.900833368,174.4575806,
1.902500033,208.358963,
1.904166698,211.2044525,
1.905833364,207.1973572,
1.907500029,205.7578125,
1.909166694,206.2753754,
1.910833359,204.6186218,
1.912500024,206.1946106,
1.914166689,206.3825378,
1.915833354,207.0030823,
1.917500019,216.227478,
1.919166684,192.3203125,
1.920833349,207.157135,
1.922500014,200.6178589,
1.924166799,216.600647,
1.925833344,182.361618,
1.92750001,200.3198395,
1.929166675,190.4380951,
1.93083334,187.4877625,
1.932500124,204.4175568,
1.93416667,179.5732574,
1.935833335,203.4556427,
1.9375,184.3254852,
1.939166665,192.8313904,
1.940833449,192.6886749,
1.942499995,184.0478058,
1.94416666,204.5438232,
1.945833325,178.6629028,
1.94749999,198.7752533,
1.949166775,180.0165863,
1.95083344,204.9553986,
1.952499986,203.5190582,
1.954166651,201.6042633,
1.955833316,203.602066,
1.9575001,202.6325989,
1.959166765,201.5010071,
1.960833311,201.2298279,
1.962499976,200.665863,
1.964166641,200.1052246,
1.965833426,198.971817,
1.967500091,199.6353607,
1.969166636,198.4321442,
1.970833302,197.9452515,
1.972499967,197.7193756,
1.974166751,196.3937988,
1.975833416,197.5383301,
1.977500081,196.1694641,
1.979166627,196.1820831,
1.980833292,195.6478424,
1.982500076,195.0622559,
1.984166741,194.2291565,
1.985833406,194.5279999,
1.987499952,194.2793732,
1.989166617,193.4437103,
1.990833402,193.8524017,
1.992500067,192.6008148,
1.994166732,193.5383453,
1.995833278,191.4552765,
1.997499943,191.9035645,
1.999166727,193.1448822,
2.000833273,191.6772461,
2.002500057,190.2178345,
2.004166603,190.5897675,
2.005833387,191.865509,
2.007500172,190.2058411,
2.009166718,189.3554535,
2.010833263,188.458252,
2.012500048,188.2378998,
2.014166594,189.722641,
2.015833378,190.1105957,
2.017500162,188.5338287,
2.019166708,187.5063782,
2.020833254,188.642746,
2.022500038,186.5659637,
2.024166822,186.7660217,
2.025833368,187.1149445,
2.027499914,187.1886139,
2.029166698,185.5154572,
2.030833244,188.1191711,
2.032500029,186.5132599,
2.034166813,186.4310455,
2.035833359,185.2467651,
2.037499905,186.9773712,
2.039166689,185.0622406,
2.040833473,185.3822632,
2.042500019,186.4840698,
2.044166803,184.8511353,
2.045833349,185.0363464,
2.047499895,185.1022644,
2.049166679,183.4020233,
2.050833464,185.1077423,
2.05250001,183.8091583,
2.054166555,185.9008179,
2.05583334,185.4844971,
2.057500124,183.491684,
2.05916667,184.9042664,
2.060833454,184.3339691,
2.0625,181.9327698,
2.064166546,182.4954376,
2.06583333,182.3897552,
2.067500114,181.6703186,
2.06916666,183.6470642,
2.070833445,180.8071136,
2.07249999,181.5423889,
2.074166775,182.7996063,
2.075833321,180.9819031,
2.077500105,182.0780029,
2.079166651,181.7956238,
2.080833197,182.319809,
2.082499981,181.0569611,
2.084166765,182.1382599,
2.085833311,182.4129944,
2.087500095,181.8925476,
2.089166641,179.2174377,
2.090833426,181.5145874,
2.092499971,180.309906,
2.094166756,181.6982574,
2.095833302,180.0516205,
2.097500086,180.4376678,
2.099166632,181.599762,
2.100833416,180.2819214,
2.102499962,180.5153961,
2.104166746,178.5224457,
2.105833292,181.0209503,
2.107500076,180.297821,
2.109166622,180.2197418,
2.110833406,179.2920074,
2.112499952,180.0884094,
2.114166737,180.3334961,
2.115833521,179.4978333,
2.117500067,179.9569855,
2.119166613,178.065033,
2.120833397,178.6063538,
2.122499943,178.4054413,
2.124166727,179.0462036,
2.125833273,177.9701691,
2.127500057,179.737854,
2.129166603,177.4548645,
2.130833387,178.1291962,
2.132500172,178.6379852,
2.134166718,178.9044342,
2.135833502,177.2845154,
2.137500048,178.5437317,
2.139166832,177.4479675,
2.140833378,177.0172119,
2.142500162,178.1255798,
2.144166708,177.1202698,
2.145833254,176.9317017,
2.147500038,178.3383942,
2.149166584,177.4276733,
2.150833368,177.6856842,
2.152500153,177.9128418,
2.154166698,177.6590118,
2.155833483,178.5316315,
2.157500029,177.2199249,
2.159166813,177.9938202,
2.160833597,175.4927521,
2.162499905,177.2342529,
2.164166689,177.4358673,
2.165833235,176.9600677,
2.167500019,177.2142792,
2.169166803,176.6513672,
2.170833349,176.993103,
2.172500134,176.3493195,
2.174166679,176.6641235,
2.175833464,177.3247681,
2.177500248,175.6528778,
2.179166555,177.1642151,
2.18083334,175.8932037,
2.182499886,176.4538879,
2.18416667,176.2214203,
2.185833454,175.8820953,
2.1875,177.6876221,
2.189166784,177.3161163,
2.19083333,175.6989136,
2.192500114,176.3631134,
2.194166899,176.030365,
2.195833445,175.3155975,
2.19749999,176.2066193,
2.199166536,176.5362549,
2.200833321,177.1635895,
2.202500105,175.7738953,
2.204166651,176.0305634,
2.205833435,174.9319,
2.207499981,175.6854095,
2.209166765,174.9147034,
2.210833549,175.1725311,
2.212500095,176.1515808,
2.21416688,174.3362732,
2.215833187,174.032135,
2.217499971,176.4244385,
2.219166756,177.0767212,
2.220833302,174.7743225,
2.222500086,175.2740479,
2.224166632,174.8095093,
2.225833416,175.6793213,
2.2275002,176.0612793,
2.229166746,175.6140442,
2.23083353,175.5498199,
2.232499838,174.9484558,
2.234166622,174.1472931,
2.235833406,175.0811462,
2.237499952,173.8568268,
2.239166737,173.6546478,
2.240833282,175.6387482,
2.242500067,172.2258759,
2.244166851,173.1130371,
2.245833397,174.9537354,
2.247500181,174.846283,
2.249166727,172.9240875,
2.250833273,173.0593719,
2.252500057,174.4064484,
2.254166603,174.3833923,
2.255833387,174.4710846,
2.257499933,174.4431305,
2.259166718,174.7082672,
2.260833502,174.1721802,
2.262500048,175.4910126,
2.264166832,174.4515076,
2.265833378,174.5006714,
2.267500162,174.1401215,
2.269166708,173.5563812,
2.270833254,173.6012115,
2.272500038,173.2103577,
2.274166584,173.8764954,
2.275833368,173.0689697,
2.277500153,172.4354401,
2.279166698,174.2817535,
2.280833483,173.3589172,
2.282500029,173.4650116,
2.284166813,172.0298615,
2.285833597,173.8052979,
2.287499905,173.141571,
2.289166689,173.1185913,
2.290833235,172.2614441,
2.292500019,173.4989319,
2.294166803,172.4078674,
2.295833349,173.8996735,
2.297500134,172.8540192,
2.299166679,174.474823,
2.300833464,172.2258301,
2.302500248,172.4722748,
2.304166555,172.7966003,
2.30583334,171.849884,
2.307499886,172.0122375,
2.30916667,173.5623474,
2.310833454,173.3033142,
2.3125,173.6727905,
2.314166784,171.5018311,
2.31583333,172.1797638,
2.317500114,172.4405518,
2.319166899,174.551712,
2.320833445,171.6329803,
2.32249999,172.5796661,
2.324166536,174.041626,
2.325833321,171.8835754,
2.327500105,172.3981323,
2.329166651,172.9282684,
2.330833435,171.9546051,
2.332499981,171.4906006,
2.334166765,173.2385559,
2.335833549,172.3812103,
2.337500095,171.7034149,
2.33916688,172.8972778,
2.340833187,173.6156464,
2.342499971,172.3973999,
2.344166756,171.8087616,
2.345833302,171.2339325,
2.347500086,171.2039642,
2.349166632,171.5262756,
2.350833416,171.8053131,
2.3525002,171.5665741,
2.354166746,172.3035126,
2.35583353,172.0043793,
2.357499838,170.5942535,
2.359166622,171.5482178,
2.360833406,170.2246094,
2.362499952,170.5626068,
2.364166737,172.0562592,
2.365833282,172.956192,
2.367500067,172.6178741,
2.369166851,171.8809052,
2.370833397,172.2773743,
2.372500181,170.4185944,
2.374166727,171.4090576,
2.375833273,171.4631195,
2.377500057,170.3932953,
2.379166603,172.3532104,
2.380833387,171.2445374,
2.382499933,171.8610382,
2.384166718,171.8213348,
2.385833502,172.4608002,
2.387500048,172.9590759,
2.389166832,172.0498962,
2.390833378,170.8327484,
2.392500162,170.8938904,
2.394166708,171.5814362,
2.395833254,171.0342102,
2.397500038,171.2727661,
2.399166584,170.6573639,
2.400833368,172.5659485,
2.402500153,171.1237946,
2.404166698,172.0407867,
2.405833483,170.7785034,
2.407500029,171.1609955,
2.409166813,170.9657135,
2.410833597,171.7193756,
2.412499905,172.1403656,
2.414166689,171.1380463,
2.415833235,171.3517761,
2.417500019,170.6678009,
2.419166803,171.1579742,
2.420833349,171.3921967,
2.422500134,172.2380219,
2.424166679,170.158432,
2.425833464,169.7269135,
2.427500248,171.321167,
2.429166555,171.429245,
2.43083334,170.4552155,
2.432499886,171.3003082,
2.43416667,171.487854,
2.435833454,170.0233917,
2.4375,170.0711823,
2.439166784,170.4575348,
2.44083333,169.9886017,
2.442500114,170.7059937,
2.444166899,170.9780121,
2.445833445,170.7984161,
2.44749999,170.3022461,
2.449166536,171.3143005,
2.450833321,169.5993195,
2.452500105,170.4896851,
2.454166651,169.9307709,
2.455833435,170.0822906,
2.457499981,170.4997101,
2.459166765,170.4873505,
2.460833549,171.6875458,
2.462500095,171.3133087,
2.46416688,170.4807892,
2.465833187,170.6231689,
2.467499971,171.1124878,
2.469166756,170.2824249,
2.470833302,170.7785797,
2.472500086,172.2164917,
2.474166632,170.6080475,
2.475833416,169.8715057,
2.4775002,170.0562897,
2.479166746,170.7635651,
2.48083353,169.2000732,
2.482499838,170.5349426,
2.484166622,170.8942719,
2.485833406,170.5313416,
2.487499952,170.0170135,
2.489166737,170.2349396,
2.490833282,170.2880096,
2.492500067,170.7824707,
2.494166851,171.3961182,
2.495833397,169.6181946,
2.497500181,170.6996765,
2.499166727,170.1161652,
2.500833273,170.1509247,
2.502500057,169.641571,
2.504166603,171.0786133,
2.505833387,170.538681,
2.507499933,170.2146606,
2.509166718,169.8066254,
2.510833502,170.5012512,
2.512500048,171.1233521,
2.514166832,170.8371735,
2.515833378,170.3067932,
2.517500162,170.8531647,
2.519166708,169.8784943,
2.520833254,171.1560211,
2.522500038,168.9796295,
2.524166584,171.0016632,
2.525833368,170.2290344,
2.527500153,170.6553192,
2.529166698,170.5546875,
2.530833483,170.0046997,
2.532500029,168.8785706,
2.534166813,170.2286682,
2.535833597,169.1968079,
2.537499905,171.2522125,
2.539166689,170.2190857,
2.540833235,169.7197876,
2.542500019,169.7492218,
2.544166803,169.4680786,
2.545833349,169.8865509,
2.547500134,170.7841339,
2.549166679,169.4600525,
2.550833464,170.2911682,
2.552500248,170.4918518,
2.554166555,169.570343,
2.55583334,170.4460754,
2.557499886,169.5691681,
2.55916667,170.1255798,
2.560833454,170.1716614,
2.5625,170.2250671,
2.564166784,169.637146,
2.56583333,170.7667999,
2.567500114,171.4351044,
2.569166899,169.2475739,
2.570833445,169.2939606,
2.57249999,168.4900055,
2.574166536,171.9280396,
2.575833321,170.7455139,
2.577500105,170.3506622,
2.579166651,168.7588654,
2.580833435,168.3591003,
2.582499981,169.2050476,
2.584166765,169.4252625,
2.585833549,170.101181,
2.587500095,169.7435303,
2.58916688,168.6263733,
2.590833187,169.2692413,
2.592499971,169.5358582,
2.594166756,169.7561951,
2.595833302,171.3864594,
2.597500086,170.4957886,
2.599166632,169.8543854,
2.600833416,168.7876434,
2.6025002,167.4973907,
2.604166746,168.5942383,
2.60583353,170.1898651,
2.607499838,169.6217041,
2.609166622,168.0046234,
2.610833406,169.1180725,
2.612499952,169.9976959,
2.614166737,168.8275757,
2.615833282,170.401413,
2.617500067,170.6464844,
2.619166851,169.8404694,
2.620833397,170.5438843,
2.622500181,168.4736633,
2.624166727,168.7714081,
2.625833273,168.2946014,
2.627500057,168.5551453,
2.629166603,169.6885986,
2.630833387,169.5374451,
2.632499933,169.6571198,
2.634166718,169.7529602,
2.635833502,168.6750641,
2.637500048,168.2462311,
2.639166832,170.6038208,
2.640833378,168.3401489,
2.642500162,169.6649933,
2.644166708,169.1937408,
2.645833254,168.8509369,
2.647500038,169.3520355,
2.649166584,170.0849609,
2.650833368,168.7381592,
2.652500153,169.3585358,
2.654166698,168.4223175,
2.655833483,169.0956879,
2.657500029,168.9624481,
2.659166813,168.9438324,
2.660833597,168.983017,
2.662499905,168.7684631,
2.664166689,170.8086243,
2.665833235,169.3330994,
2.667500019,168.1692352,
2.669166803,168.7774353,
2.670833349,169.0888214,
2.672500134,170.7099609,
2.674166679,169.1169891,
2.675833464,169.6331635,
2.677500248,169.3578033,
2.679166555,170.3225555,
2.68083334,168.3477783,
2.682499886,168.9351807,
2.68416667,169.9832916,
2.685833454,171.2850189,
2.6875,169.9626923,
2.689166784,170.2941284,
2.69083333,169.0094604,
2.692500114,169.581192,
2.694166899,169.5130157,
2.695833445,169.0979767,
2.69749999,170.4370575,
2.699166536,167.8215027,
2.700833321,170.6867371,
2.702500105,168.7140808,
2.704166651,171.4807281,
2.705833435,168.9883881,
2.707499981,169.4363708,
2.709166765,170.1506653,
2.710833549,168.6149597,
2.712500095,168.7806854,
2.71416688,170.6825409,
2.715833187,168.4314117,
2.717499971,167.665802,
2.719166756,170.2057495,
2.720833302,167.6763763,
2.722500086,168.4742737,
2.724166632,168.6450653,
2.725833416,169.8735962,
2.7275002,169.4399414,
2.729166746,169.5976105,
2.73083353,169.7891388,
2.732499838,169.9014587,
2.734166622,169.8510284,
2.735833406,169.17453,
2.737499952,169.187561,
2.739166737,169.7461853,
2.740833282,169.0505829,
2.742500067,169.2434998,
2.744166851,168.9911346,
2.745833397,168.2402344,
2.747500181,167.2689056,
2.749166727,169.4891357,
2.750833273,168.8524017,
2.752500057,168.860672,
2.754166603,168.5721283,
2.755833387,170.1844177,
2.757499933,169.2411652,
2.759166718,168.168457,
2.760833502,168.4825745,
2.762500048,169.302124,
2.764166832,168.9425354,
2.765833378,168.1544647,
2.767500162,168.8808746,
2.769166708,168.6069031,
2.770833254,168.4886017,
2.772500038,168.2409363,
2.774166584,168.5646973,
2.775833368,171.4808807,
2.777500153,168.713913,
2.779166698,169.0341034,
2.780833483,169.3993683,
2.782500029,167.5517731,
2.784166813,169.3309174,
2.785833597,168.2839966,
2.787499905,168.9254303,
2.789166689,168.3423309,
2.790833235,168.334137,
2.792500019,169.3492126,
2.794166803,167.2344055,
2.795833349,168.5038147,
2.797500134,169.289505,
2.799166679,167.4414673,
2.800833464,169.1503601,
2.802500248,167.6216888,
2.804166555,168.3893585,
2.80583334,168.2663422,
2.807499886,167.5467834,
2.80916667,168.4333496,
2.810833454,167.515564,
2.8125,168.1677704,
2.814166784,168.8044739,
2.81583333,168.2220764,
2.817500114,168.4360809,
2.819166899,168.7328796,
2.820833445,168.6008911,
2.82249999,167.6121063,
2.824166536,169.3448639,
2.825833321,169.175293,
2.827500105,169.4191589,
2.829166651,168.3790741,
2.830833435,167.8580322,
2.832499981,168.1185608,
2.834166765,168.8580475,
2.835833549,168.8668365,
2.837500095,167.7045746,
2.83916688,168.6757813,
2.840833187,170.1591492,
2.842499971,169.065567,
2.844166756,168.008316,
2.845833302,168.519104,
2.847500086,167.2693481,
2.849166632,168.3582764,
2.850833416,167.2087708,
2.8525002,167.5276184,
2.854166746,169.0017853,
2.85583353,168.9490051,
2.857499838,167.9592896,
2.859166622,168.080658,
2.860833406,168.1100006,
2.862499952,169.3803101,
2.864166737,167.7937775,
2.865833282,167.8575134,
2.867500067,168.2949829,
2.869166851,168.6030426,
2.870833397,167.9183655,
2.872500181,169.0829163,
2.874166727,168.0797577,
2.875833273,167.566391,
2.877500057,167.9232635,
2.879166603,169.5357056,
2.880833387,166.4405823,
2.882499933,168.3618469,
2.884166718,169.3761139,
2.885833502,168.8867798,
2.887500048,169.5528107,
2.889166832,168.4346924,
2.890833378,168.0461884,
2.892500162,169.4345093,
2.894166708,168.2859192,
2.895833254,167.3541412,
2.897500038,168.6415558,
2.899166584,168.0907593,
2.900833368,168.0354156,
2.902500153,167.4624481,
2.904166698,168.0332947,
2.905833483,168.0770111,
2.907500029,168.1270447,
2.909166813,169.4772644,
2.910833597,168.4180603,
2.912499905,168.9355621,
2.914166689,167.8283234,
2.915833235,166.7591248,
2.917500019,167.9747162,
2.919166803,167.313797,
2.920833349,167.641571,
2.922500134,166.9151611,
2.924166679,167.6748962,
2.925833464,168.2157593,
2.927500248,168.7059784,
2.929166555,168.8024597,
2.93083334,167.2980042,
2.932499886,167.6783905,
2.93416667,168.7367096,
2.935833454,169.6616821,
2.9375,168.311203,
2.939166784,167.2549133,
2.94083333,168.6430969,
2.942500114,167.2759094,
2.944166899,168.0494537,
2.945833445,168.0111847,
2.94749999,167.6776428,
2.949166536,166.5133057,
2.950833321,168.8643494,
2.952500105,167.1531372,
2.954166651,168.470871,
2.955833435,167.2236023,
2.957499981,168.4178925,
2.959166765,168.3663788,
2.960833549,168.1538391,
2.962500095,167.2000427,
2.96416688,168.1500549,
2.965833187,169.167511,
2.967499971,167.4105225,
2.969166756,167.2132874,
2.970833302,167.3690948,
2.972500086,168.0410461,
2.974166632,167.7822571,
2.975833416,168.4789581,
2.9775002,168.8225403,
2.979166746,168.5445099,
2.98083353,168.1941833,
2.982499838,168.2261353,
2.984166622,167.8093262,
2.985833406,168.2687988,
2.987499952,166.9080048,
2.989166737,168.4188538,
2.990833282,168.417923,
2.992500067,167.3603973,
2.994166851,166.8529663,
2.995833397,168.6585388,
2.997500181,168.3834686,
2.999166727,168.1991577,
3.000833273,167.0763092,
3.002500057,166.5849609,
3.004166603,166.6488342,
3.005833387,168.5460052,
3.007499933,168.7395172,
3.009166718,168.7460785,
3.010833502,168.2969208,
3.012500048,168.2052765,
3.014166832,167.7749786,
3.015833378,166.9558105,
3.017500162,169.9150391,
3.019166708,167.4331818,
3.020833254,168.4190674,
3.022500038,167.8774872,
3.024166584,167.313324,
3.025833368,167.0289307,
3.027500153,167.4537659,
3.029166698,167.4926453,
3.030833483,168.0540314,
3.032500029,167.6620941,
3.034166813,167.9761505,
3.035833597,168.1534424,
3.037499905,166.7321472,
3.039166689,167.3851471,
3.040833235,167.1414795,
3.042500019,168.2522736,
3.044166803,167.2147369,
3.045833349,167.4416351,
3.047500134,168.45578,
3.049166679,166.8618317,
3.050833464,168.008728,
3.052500248,167.0847931,
3.054166555,167.1832123,
3.05583334,166.3304443,
3.057499886,167.7901306,
3.05916667,168.1538086,
3.060833454,166.8296814,
3.0625,168.0869446,
3.064166784,168.0006561,
3.06583333,167.538681,
3.067500114,168.5056915,
3.069166899,167.4825439,
3.070833445,168.7492065,
3.07249999,168.7455902,
3.074166536,168.0198364,
3.075833321,168.460434,
3.077500105,166.9283142,
3.079166651,168.1582184,
3.080833435,167.8721771,
3.082499981,167.0153351,
3.084166765,167.7382813,
3.085833549,167.5845184,
3.087500095,167.8633423,
3.08916688,166.9352875,
3.090833187,168.4773254,
3.092499971,168.660965,
3.094166756,168.6722565,
3.095833302,167.9447479,
3.097500086,167.4094086,
3.099166632,168.7382355,
3.100833416,167.021759,
3.1025002,167.2143555,
3.104166746,167.663559,
3.10583353,167.0700226,
3.107499838,167.6887054,
3.109166622,167.7812805,
3.110833406,166.7950439,
3.112499952,167.5979614,
3.114166737,169.6231232,
3.115833282,167.1456299,
3.117500067,167.4588623,
3.119166851,168.1787567,
3.120833397,167.6100159,
3.122500181,169.6837006,
3.124166727,168.7213135,
3.125833273,167.0370026,
3.127500057,167.921814,
3.129166603,168.0058899,
3.130833387,167.519577,
3.132499933,167.5196686,
3.134166718,169.7443085,
3.135833502,166.8406982,
3.137500048,167.2019653,
3.139166832,167.4753265,
3.140833378,168.5779724,
3.142500162,168.1903229,
3.144166708,168.5110168,
3.145833254,168.1214142,
3.147500038,167.6123199,
3.149166584,166.7550812,
3.150833368,168.0232086,
3.152500153,166.5906372,
3.154166698,167.8000183,
3.155833483,167.0922852,
3.157500029,167.8226776,
3.159166813,167.8988037,
3.160833597,167.232193,
3.162499905,167.1296234,
3.164166689,166.2235718,
3.165833235,167.7304382,
3.167500019,166.6427002,
3.169166803,167.0656738,
3.170833349,167.7006989,
3.172500134,167.5369568,
3.174166679,167.9236145,
3.175833464,168.1149597,
3.177500248,166.0981445,
3.179166555,168.6056366,
3.18083334,168.588623,
3.182499886,168.5455475,
3.18416667,167.2286224,
3.185833454,167.7619781,
3.1875,167.2217407,
3.189166784,166.5592041,
3.19083333,165.916153,
3.192500114,168.1316986,
3.194166899,167.5877228,
3.195833445,167.245636,
3.19749999,167.936264,
3.199166536,168.3047638,
3.200833321,167.7654114,
3.202500105,167.7373199,
3.204166651,168.2525635,
3.205833435,168.169342,
3.207499981,168.4998016,
3.209166765,167.1473389,
3.210833549,168.095108,
3.212500095,166.9311371,
3.21416688,167.0126648,
3.215833187,166.7257996,
3.217499971,166.9061584,
3.219166756,167.117157,
3.220833302,167.039093,
3.222500086,168.8655243,
3.224166632,169.5362854,
3.225833416,168.1280365,
3.2275002,167.3551483,
3.229166746,167.8222809,
3.23083353,167.4990387,
3.232499838,167.7839203,
3.234166622,166.8691406,
3.235833406,169.6870117,
3.237499952,167.0623169,
3.239166737,167.63974,
3.240833282,167.1799927,
3.242500067,167.9219818,
3.244166851,167.726532,
3.245833397,166.7675323,
3.247500181,167.7271118,
3.249166727,166.7633972,
3.250833273,168.8156128,
3.252500057,166.5847931,
3.254166603,167.3888855,
3.255833387,166.3266144,
3.257499933,168.1107483,
3.259166718,167.7762909,
3.260833502,167.8531494,
3.262500048,167.1076508,
3.264166832,166.3252869,
3.265833378,167.6855011,
3.267500162,167.1416168,
3.269166708,166.325531,
3.270833254,167.9736633,
3.272500038,166.7467957,
3.274166584,166.6967468,
3.275833368,167.7477722,
3.277500153,168.0223694,
3.279166698,169.2845917,
3.280833483,166.9658966,
3.282500029,166.8050842,
3.284166813,167.9632416,
3.285833597,168.1210175,
3.287499905,168.325058,
3.289166689,167.545578,
3.290833235,166.6200867,
3.292500019,166.9163666,
3.294166803,167.1009521,
3.295833349,167.4438019,
3.297500134,166.8252869,
3.299166679,167.9173279,
3.300833464,167.8964691,
3.302500248,167.2604523,
3.304166555,167.8874664,
3.30583334,166.3132324,
3.307499886,166.4186707,
3.30916667,166.7355347,
3.310833454,167.2137604,
3.3125,167.2458649,
3.314166784,167.5455627,
3.31583333,167.5580597,
3.317500114,167.0099945,
3.319166899,167.193985,
3.320833445,167.0778503,
3.32249999,166.8307037,
3.324166536,166.7606964,
3.325833321,167.0587769,
3.327500105,167.2094879,
3.329166651,167.890152,
3.330833435,167.1730652,
3.332499981,168.4543762,
3.334166765,167.4296722,
3.335833549,167.7781982,
3.337500095,166.4966736,
3.33916688,167.1138458,
3.340833187,168.3312683,
3.342499971,168.6508636,
3.344166756,168.0496826,
3.345833302,167.3000793,
3.347500086,168.9606476,
3.349166632,167.6076202,
3.350833416,167.4979553,
3.3525002,167.7719116,
3.354166746,167.8041687,
3.35583353,166.4751129,
3.357499838,166.1028442,
3.359166622,167.8715363,
3.360833406,167.9037323,
3.362499952,166.7470856,
3.364166737,166.7094269,
3.365833282,167.0180817,
3.367500067,167.1006927,
3.369166851,166.9733582,
3.370833397,168.3710938,
3.372500181,167.8891602,
3.374166727,166.8792419,
3.375833273,166.6814575,
3.377500057,167.1244965,
3.379166603,167.5281219,
3.380833387,166.7810516,
3.382499933,166.1225128,
3.384166718,167.9553528,
3.385833502,168.10466,
3.387500048,167.2614899,
3.389166832,167.8167419,
3.390833378,167.3210602,
3.392500162,166.6856842,
3.394166708,167.0257568,
3.395833254,167.0648804,
3.397500038,168.1746063,
3.399166584,167.2531738,
3.400833368,167.159256,
3.402500153,168.0131531,
3.404166698,167.1394196,
3.405833483,167.175354,
3.407500029,167.170578,
3.409166813,168.3075562,
3.410833597,166.4465179,
3.412499905,167.0559235,
3.414166689,166.7952271,
3.415833235,167.6991425,
3.417500019,166.3377686,
3.419166803,166.8843689,
3.420833349,166.5079346,
3.422500134,167.6895447,
3.424166679,167.5828705,
3.425833464,167.1887512,
3.427500248,168.3272095,
3.429166555,167.4246216,
3.43083334,167.5044708,
3.432499886,167.0368195,
3.43416667,167.9854431,
3.435833454,166.9755554,
3.4375,167.8296356,
3.439166784,168.083252,
3.44083333,167.4943695,
3.442500114,166.5233002,
3.444166899,168.0957336,
3.445833445,167.9420624,
3.44749999,168.2630157,
3.449166536,166.9721069,
3.450833321,168.0733337,
3.452500105,168.2148743,
3.454166651,166.4501648,
3.455833435,167.4844208,
3.457499981,167.4560394,
3.459166765,167.2457733,
3.460833549,168.3555145,
3.462500095,166.8938141,
3.46416688,167.5081177,
3.465833187,167.7197266,
3.467499971,166.9556122,
3.469166756,168.4408264,
3.470833302,166.7806091,
3.472500086,167.9552155,
3.474166632,166.304306,
3.475833416,167.8769226,
3.4775002,167.6549377,
3.479166746,166.303299,
3.48083353,169.2391357,
3.482499838,167.6579437,
3.484166622,166.4308319,
3.485833406,167.1569061,
3.487499952,166.5645447,
3.489166737,166.3798828,
3.490833282,167.7565155,
3.492500067,167.1128998,
3.494166851,167.4370575,
3.495833397,167.6040344,
3.497500181,166.6491089,
3.499166727,167.4683228,
3.500833273,167.9557037,
3.502500057,166.7925262,
3.504166603,166.3885803,
3.505833387,168.0588074,
3.507499933,167.1235657,
3.509166718,166.4030304,
3.510833502,167.727356,
3.512500048,166.128952,
3.514166832,167.52565,
3.515833378,167.6510468,
3.517500162,166.8781586,
3.519166708,168.3140411,
3.520833254,167.6177979,
3.522500038,166.4869537,
3.524166584,168.3872375,
3.525833368,167.590332,
3.527500153,168.5762177,
3.529166698,167.640213,
3.530833483,166.3491516,
3.532500029,166.4850006,
3.534166813,168.1889801,
3.535833597,166.7889099,
3.537499905,167.6291351,
3.539166689,167.3338165,
3.540833235,166.7263947,
3.542500019,166.883194,
3.544166803,168.4758606,
3.545833349,167.2845306,
3.547500134,167.0593719,
3.549166679,167.0646667,
3.550833464,167.2838745,
3.552500248,168.3109283,
3.554166555,168.0792542,
3.55583334,166.869339,
3.557499886,166.7924194,
3.55916667,167.2247925,
3.560833454,166.7043457,
3.5625,167.1147919,
3.564166784,166.6799927,
3.56583333,166.8346558,
3.567500114,167.282547,
3.569166899,166.1428375,
3.570833445,165.542099,
3.57249999,166.6230011,
3.574166536,166.5599976,
3.575833321,166.6254883,
3.577500105,166.730484,
3.579166651,167.0415192,
3.580833435,167.9610291,
3.582499981,166.3893433,
3.584166765,168.7149048,
3.585833549,167.2251129,
3.587500095,167.4302979,
3.58916688,167.7845917,
3.590833187,166.4262085,
3.592499971,166.9436035,
3.594166756,167.8866272,
3.595833302,167.5668488,
3.597500086,167.8466797,
3.599166632,167.8693848,
3.600833416,167.0561981,
3.6025002,166.1812744,
3.604166746,166.1460724,
3.60583353,167.2962341,
3.607499838,167.4184875,
3.609166622,167.3504639,
3.610833406,168.4457092,
3.612499952,166.2676086,
3.614166737,167.7184601,
3.615833282,167.1094971,
3.617500067,167.3798981,
3.619166851,167.6881104,
3.620833397,168.3031311,
3.622500181,168.163269,
3.624166727,167.4169922,
3.625833273,166.0255432,
3.627500057,167.5815887,
3.629166603,168.6920624,
3.630833387,167.2302856,
3.632499933,166.3301697,
3.634166718,167.8758392,
3.635833502,167.5241852,
3.637500048,168.4992371,
3.639166832,166.9067993,
3.640833378,167.415451,
3.642500162,167.2296448,
3.644166708,167.3748169,
3.645833254,167.5748901,
3.647500038,166.4104309,
3.649166584,167.431427,
3.650833368,166.5918121,
3.652500153,167.8647461,
3.654166698,167.4009094,
3.655833483,167.3020325,
3.657500029,167.6296082,
3.659166813,167.8113098,
3.660833597,168.4091644,
3.662499905,166.3238373,
3.664166689,166.1639099,
3.665833235,167.9265747,
3.667500019,167.0825348,
3.669166803,168.5205078,
3.670833349,167.4007721,
3.672500134,166.3891907,
3.674166679,167.5943146,
3.675833464,167.8299713,
3.677500248,166.5954895,
3.679166555,168.577301,
3.68083334,166.6207733,
3.682499886,166.9236298,
3.68416667,167.9091187,
3.685833454,167.8565826,
3.6875,168.5963135,
3.689166784,167.832077,
3.69083333,166.9826508,
3.692500114,167.1172333,
3.694166899,167.0879211,
3.695833445,166.9828491,
3.69749999,167.41922,
3.699166536,168.3508453,
3.700833321,167.7281952,
3.702500105,167.2441101,
3.704166651,167.4000702,
3.705833435,167.9586945,
3.707499981,168.0327606,
3.709166765,166.4894562,
3.710833549,166.5067749,
3.712500095,166.3960571,
3.71416688,165.8824158,
3.715833187,166.7185364,
3.717499971,167.3737488,
3.719166756,165.9296875,
3.720833302,168.0884857,
3.722500086,167.8844604,
3.724166632,167.4718933,
3.725833416,166.954483,
3.7275002,166.5063629,
3.729166746,166.7815704,
3.73083353,168.0850067,
3.732499838,166.9181366,
3.734166622,167.0685272,
3.735833406,168.1879425,
3.737499952,166.4891968,
3.739166737,167.6080017,
3.740833282,166.6181641,
3.742500067,167.4881134,
3.744166851,167.1889038,
3.745833397,167.3104095,
3.747500181,166.95401,
3.749166727,167.5808105,
3.750833273,167.2701416,
3.752500057,167.9537964,
3.754166603,167.5158386,
3.755833387,167.2375488,
3.757499933,165.654953,
3.759166718,167.629303,
3.760833502,166.4692535,
3.762500048,167.5776672,
3.764166832,166.0830383,
3.765833378,165.9876099,
3.767500162,166.2775116,
3.769166708,166.5346832,
3.770833254,166.88414,
3.772500038,167.733902,
3.774166584,167.5438843,
3.775833368,167.4873505,
3.777500153,168.5017853,
3.779166698,167.4160156,
3.780833483,166.4298401,
3.782500029,168.6898651,
3.784166813,167.4031525,
3.785833597,168.175827,
3.787499905,167.84198,
3.789166689,166.3854675,
3.790833235,166.5057831,
3.792500019,166.9940948,
3.794166803,166.0358429,
3.795833349,168.2371826,
3.797500134,167.23172,
3.799166679,167.1151276,
3.800833464,166.8929749,
3.802500248,166.6310425,
3.804166555,167.9457245,
3.80583334,166.3881531,
3.807499886,167.5522614,
3.80916667,166.4765167,
3.810833454,168.9045563,
3.8125,166.2935181,
3.814166784,166.2165833,
3.81583333,166.7359924,
3.817500114,167.2850037,
3.819166899,166.2086334,
3.820833445,167.4533539,
3.82249999,166.8425751,
3.824166536,165.9881592,
3.825833321,166.9901276,
3.827500105,167.158844,
3.829166651,167.9878693,
3.830833435,167.0613098,
3.832499981,166.4935608,
3.834166765,168.175705,
3.835833549,166.5273895,
3.837500095,167.6844482,
3.83916688,167.011734,
3.840833187,167.0014038,
3.842499971,167.2154236,
3.844166756,167.5853271,
3.845833302,167.4661102,
3.847500086,166.3471069,
3.849166632,168.3602905,
3.850833416,168.0506744,
3.8525002,167.302948,
3.854166746,167.7812805,
3.85583353,168.4380951,
3.857499838,167.2277222,
3.859166622,167.3044891,
3.860833406,167.0711212,
3.862499952,166.7617645,
3.864166737,168.3631744,
3.865833282,166.2645416,
3.867500067,166.3047485,
3.869166851,167.3844299,
3.870833397,166.3947754,
3.872500181,167.3934021,
3.874166727,168.3826599,
3.875833273,166.3366394,
3.877500057,166.865097,
3.879166603,166.2290955,
3.880833387,168.0271301,
3.882499933,166.4672852,
3.884166718,166.7997284,
3.885833502,166.3577728,
3.887500048,166.8554077,
3.889166832,166.5412445,
3.890833378,166.159256,
3.892500162,166.1520844,
3.894166708,168.2678528,
3.895833254,166.7017517,
3.897500038,165.6408386,
3.899166584,167.5118866,
3.900833368,166.5996704,
3.902500153,167.8233032,
3.904166698,166.601059,
3.905833483,167.2798309,
3.907500029,165.2699127,
3.909166813,166.3897858,
3.910833597,167.2592316,
3.912499905,168.2798157,
3.914166689,166.9072571,
3.915833235,168.0827789,
3.917500019,166.1479645,
3.919166803,167.2835388,
3.920833349,166.3546143,
3.922500134,166.8830261,
3.924166679,166.1242523,
3.925833464,166.7144623,
3.927500248,167.601593,
3.929166555,167.4438934,
3.93083334,166.7165833,
3.932499886,166.790451,
3.93416667,165.8613129,
3.935833454,166.0725555,
3.9375,166.3882446,
3.939166784,166.8201294,
3.94083333,166.9878998,
3.942500114,168.4506836,
3.944166899,167.6959229,
3.945833445,167.3872528,
3.94749999,166.2906189,
3.949166536,166.7833252,
3.950833321,168.078949,
3.952500105,165.7368927,
3.954166651,166.224884,
3.955833435,165.4834747,
3.957499981,167.1833191,
3.959166765,167.6873169,
3.960833549,166.7889252,
3.962500095,166.4813385,
3.96416688,166.4835815,
3.965833187,167.4019012,
3.967499971,166.008667,
3.969166756,167.1381378,
3.970833302,167.2952881,
3.972500086,165.4076385,
3.974166632,167.7281342,
3.975833416,166.8917694,
3.9775002,167.8079834,
3.979166746,167.2660217,
3.98083353,166.4527283,
3.982499838,167.0297394,
3.984166622,166.7080688,
3.985833406,168.8702087,
3.987499952,165.42276,
3.989166737,167.1645813,
3.990833282,167.9010468,
3.992500067,167.816925,
3.994166851,166.8799591,
3.995833397,168.0576782,
3.997500181,167.1512604,
3.999166727,166.7454071,
4.000833511,167.8981934,

