1,,
Time (min),Intensity (a.u.),
0.0008333333535,47.46198654,
0.002500000177,47.67869568,
0.004166666884,47.86771393,
0.005833333358,47.18025589,
0.007500000298,48.10960007,
0.009166667238,47.74540329,
0.01083333418,48.09507751,
0.01250000019,48.78091431,
0.01416666713,48.11099243,
0.01583333313,47.4709816,
0.01750000194,47.8927536,
0.01916666701,48.03552628,
0.02083333395,47.7402916,
0.02250000089,47.76996613,
0.02416666783,47.93550491,
0.02583333477,47.42915726,
0.02749999985,47.79564667,
0.02916666679,48.19205475,
0.03083333373,48.14450836,
0.03250000253,47.71019363,
0.03416666761,48.45968628,
0.03583333641,47.1156044,
0.03750000149,48.18299484,
0.03916667029,48.09495544,
0.04083333537,47.71196365,
0.04250000045,48.52781677,
0.04416666925,47.52513885,
0.04583333433,48.1247673,
0.04750000313,47.13874054,
0.04916666821,47.79598999,
0.05083333328,47.86872864,
0.05250000209,48.31959152,
0.05416666716,47.8682785,
0.05583333597,48.45872498,
0.05750000104,47.62130356,
0.05916666612,48.13380432,
0.06083333492,47.50577927,
0.0625,46.94855118,
0.06416667253,47.89210892,
0.0658333376,48.17225266,
0.06750000268,47.33440399,
0.06916666776,48.13956451,
0.07083333284,47.33041382,
0.07249999791,48.45140076,
0.07416667044,47.90559769,
0.07583333552,48.16439438,
0.0775000006,48.53807831,
0.07916666567,47.8596077,
0.08083333075,48.15293503,
0.08250000328,48.00709534,
0.08416666836,47.8096199,
0.08583333343,47.85366821,
0.08749999851,48.6006813,
0.08916666359,48.17845917,
0.09083333611,47.76799393,
0.09250000119,48.18146515,
0.09416666627,48.25446701,
0.09583333135,47.66820526,
0.09749999642,48.13669205,
0.09916666895,48.6253891,
0.100833334,47.60375595,
0.1024999991,47.7119751,
0.1041666642,48.45672226,
0.1058333293,47.80773163,
0.1075000018,48.30065536,
0.1091666669,47.69916534,
0.1108333319,47.84358597,
0.112499997,47.38221359,
0.1141666621,47.75242233,
0.1158333346,47.91475677,
0.1174999997,47.57094955,
0.1191666648,48.15091324,
0.1208333299,48.25785446,
0.1224999949,48.23674393,
0.1241666749,47.57520676,
0.1258333325,48.35235596,
0.1274999976,47.95694733,
0.1291666627,46.99965668,
0.1308333278,47.9887352,
0.1325000077,48.13476944,
0.1341666728,48.2419281,
0.1358333379,47.55105209,
0.137500003,47.85947418,
0.1391666681,48.85688019,
0.1408333331,48.05538559,
0.1424999982,47.58147049,
0.1441666782,48.15485764,
0.1458333284,48.3009758,
0.1475000083,47.3888588,
0.1491666585,47.9134903,
0.1508333385,48.18385315,
0.1525000036,47.59617996,
0.1541666687,48.46922302,
0.1558333337,47.94488144,
0.1574999988,47.91981125,
0.1591666639,48.74208069,
0.1608333439,47.93011475,
0.162499994,46.7456131,
0.164166674,48.30638885,
0.1658333242,47.8948555,
0.1675000042,47.91304398,
0.1691666692,48.18373489,
0.1708333343,48.04929733,
0.1724999994,48.3957901,
0.1741666645,46.99947357,
0.1758333296,48.14910126,
0.1775000095,47.85634232,
0.1791666597,48.08243179,
0.1808333397,47.91724777,
0.1824999899,47.67469406,
0.1841666698,48.10788345,
0.1858333498,47.73106766,
0.1875,47.72496033,
0.18916668,48.3638649,
0.1908333302,48.15470505,
0.1925000101,48.0939827,
0.1941666752,47.20158768,
0.1958333403,48.33267593,
0.1975000054,47.86865234,
0.1991666704,47.43209839,
0.2008333355,47.67059708,
0.2025000155,47.69695663,
0.2041666657,48.68524933,
0.2058333457,47.85431671,
0.2074999958,48.07398605,
0.2091666758,47.67066574,
0.2108333409,48.02330399,
0.212500006,47.82685852,
0.214166671,47.92211533,
0.2158333361,47.50917435,
0.2175000012,48.65133286,
0.2191666812,47.74413681,
0.2208333313,48.39647293,
0.2225000113,47.98549652,
0.2241666615,47.65671921,
0.2258333415,47.76050568,
0.2275000066,48.12812042,
0.2291666716,48.44620132,
0.2308333367,47.78006363,
0.2325000018,48.53467941,
0.2341666669,47.66463089,
0.2358333468,47.87478638,
0.237499997,48.10612488,
0.239166677,47.2424202,
0.2408333272,47.51039124,
0.2425000072,47.49338531,
0.2441666722,47.91394424,
0.2458333373,47.86714935,
0.2475000024,47.51462555,
0.2491666675,47.18641663,
0.2508333325,47.29483414,
0.2524999976,47.6911087,
0.2541666627,48.24716568,
0.2558333278,47.63057327,
0.2574999928,48.0263443,
0.2591666579,47.98304367,
0.2608333528,48.41883087,
0.2624999881,48.31578064,
0.264166683,47.02121735,
0.2658333182,47.53293991,
0.2675000131,47.84715271,
0.2691666484,47.85885239,
0.2708333433,47.95586395,
0.2725000083,47.77748489,
0.2741666734,48.1520195,
0.2758333385,47.92315292,
0.2775000036,48.04313278,
0.2791666687,48.41616821,
0.2808333337,48.62748718,
0.2824999988,47.07491302,
0.2841666937,47.91646194,
0.285833329,47.84809494,
0.287499994,47.7662468,
0.2891666591,47.67424774,
0.290833354,47.81480408,
0.2925000191,47.41259003,
0.2941666543,47.83244324,
0.2958333194,48.47960663,
0.2975000143,47.77943039,
0.2991666794,47.36959457,
0.3008333445,47.72254944,
0.3024999797,48.10134125,
0.3041666746,48.00828934,
0.3058333397,48.16063309,
0.3075000048,47.8315506,
0.3091666996,47.76979828,
0.3108333349,47.67203903,
0.3125,48.41164017,
0.3141666651,47.79595184,
0.31583336,47.79000473,
0.317500025,47.54831696,
0.3191666603,47.33391953,
0.3208333254,48.50777435,
0.3225000203,47.8182869,
0.3241666853,48.28689194,
0.3258333504,48.48040771,
0.3274999857,48.20974731,
0.3291666806,47.9479599,
0.3308333457,47.97679901,
0.3325000107,47.5559082,
0.3341666758,48.31023788,
0.3358333409,48.14147568,
0.337500006,48.4533577,
0.339166671,47.69128418,
0.3408333361,47.8828392,
0.342500031,48.36757278,
0.3441666663,47.95772934,
0.3458333313,47.71795654,
0.3474999964,47.59799957,
0.3491666913,48.13307571,
0.3508333564,48.10003662,
0.3524999917,47.67712402,
0.3541666567,47.94495773,
0.3558333516,47.22184372,
0.3575000167,48.14821625,
0.3591666818,48.11332703,
0.360833317,47.87015152,
0.3625000119,47.83437347,
0.364166677,48.52170563,
0.3658333421,48.21279526,
0.3675000072,47.58858109,
0.3691666722,47.98136902,
0.3708333373,48.11984253,
0.3725000024,47.64373016,
0.3741666675,47.67700577,
0.3758333623,48.00241089,
0.3774999976,47.82698441,
0.3791666627,47.65570831,
0.3808333278,48.27320862,
0.3825000226,47.784729,
0.3841666877,48.14792633,
0.385833323,47.66479874,
0.3874999881,47.76405716,
0.389166683,48.00101089,
0.390833348,48.36758423,
0.3925000131,47.46960831,
0.3941666484,47.75247955,
0.3958333433,48.52972412,
0.3975000083,47.81497574,
0.3991666734,48.19515228,
0.4008333385,47.60187912,
0.4025000036,47.31546783,
0.4041666687,47.80622101,
0.4058333337,48.15363693,
0.4074999988,47.61450958,
0.4091666937,47.93671417,
0.410833329,48.0421257,
0.412499994,48.0112915,
0.4141666591,47.88874817,
0.415833354,47.46902084,
0.4175000191,48.21432877,
0.4191666543,46.75276947,
0.4208333194,47.73903656,
0.4225000143,47.71733093,
0.4241666794,47.35363007,
0.4258333445,48.46300507,
0.4274999797,47.66441727,
0.4291666746,47.70589828,
0.4308333397,48.18073654,
0.4325000048,48.27118683,
0.4341666996,47.48078156,
0.4358333349,47.6145134,
0.4375,47.71500397,
0.4391666651,47.68889236,
0.44083336,47.73386765,
0.442500025,48.61427689,
0.4441666603,47.73579025,
0.4458333254,47.8131485,
0.4475000203,47.02273941,
0.4491666853,47.11750412,
0.4508333504,47.23306274,
0.4524999857,47.04515457,
0.4541666806,48.25695419,
0.4558333457,47.7608757,
0.4575000107,47.30566406,
0.4591666758,48.14871979,
0.4608333409,48.17752075,
0.462500006,47.92526627,
0.464166671,47.41158676,
0.4658333361,47.86131287,
0.467500031,47.92290115,
0.4691666663,47.69750214,
0.4708333313,48.25603485,
0.4724999964,48.26465607,
0.4741666913,47.95926666,
0.4758333564,48.59360886,
0.4774999917,47.78382874,
0.4791666567,47.38029099,
0.4808333516,46.85437775,
0.4825000167,47.65537262,
0.4841666818,48.09789658,
0.485833317,47.96554184,
0.4875000119,48.35589981,
0.489166677,47.64737701,
0.4908333421,48.10781097,
0.4925000072,47.81272507,
0.4941666722,47.23426056,
0.4958333373,48.03646088,
0.4975000024,47.23221207,
0.4991666675,48.66028595,
0.5008333325,47.56238174,
0.5024999976,47.68607712,
0.5041666627,48.27404785,
0.5058333278,48.20860672,
0.5074999928,48.54868698,
0.5091666579,48.22328949,
0.510833323,47.68496704,
0.5124999881,47.88362885,
0.5141666532,47.68112946,
0.5158333182,47.68877029,
0.5175000429,48.23564529,
0.5191666484,47.8335228,
0.5208333135,48.11483002,
0.5224999785,47.41810226,
0.5241667032,47.97768784,
0.5258333683,47.49541855,
0.5274999738,47.28409576,
0.5291666389,47.54906845,
0.5308333635,48.07885742,
0.5325000286,47.60607147,
0.5341666341,47.61536026,
0.5358333588,48.49005127,
0.5375000238,47.99005127,
0.5391666889,47.74038315,
0.540833354,47.70094299,
0.5424999595,47.7930069,
0.5441666842,47.99386597,
0.5458333492,48.29891968,
0.5475000143,48.08281326,
0.5491666794,48.15639877,
0.5508333445,47.91571426,
0.5525000095,48.10616302,
0.5541666746,47.64739609,
0.5558333993,47.32886505,
0.5575000048,48.12969208,
0.5591666698,47.18426132,
0.5608333349,48.20561218,
0.5625,48.22832489,
0.5641667247,47.87932205,
0.5658333302,47.801651,
0.5674999952,47.21858597,
0.5691667199,47.5892868,
0.5708333254,48.08283997,
0.5725000501,48.42598724,
0.5741666555,47.25839233,
0.5758333206,48.62899017,
0.5775000453,47.120327,
0.5791666508,47.46831512,
0.5808333755,48.10712814,
0.5825000405,47.94223404,
0.584166646,48.01554489,
0.5858333707,48.21089935,
0.5874999762,47.57692337,
0.5891667008,47.80313492,
0.5908333659,47.57956314,
0.5924999714,48.02577972,
0.5941666961,48.2629509,
0.5958333611,48.53954315,
0.5975000262,48.05318069,
0.5991666913,48.00716019,
0.6008332968,47.24679947,
0.6025000215,48.00470734,
0.6041666865,48.60614395,
0.6058333516,47.88732529,
0.6075000167,47.8359375,
0.6091666818,47.90068817,
0.6108333468,47.86801147,
0.6125000119,47.61010361,
0.614166677,47.90302277,
0.6158333421,48.5173912,
0.6175000072,47.39370728,
0.6191666722,47.6088829,
0.6208333373,47.77852631,
0.622500062,47.658741,
0.6241666675,48.26227188,
0.6258333325,48.24311447,
0.6274999976,47.43798065,
0.6291666627,47.81617737,
0.6308333874,48.26276779,
0.6324999928,47.83959579,
0.6341666579,47.80919266,
0.6358333826,47.83370972,
0.6374999881,47.62018585,
0.6391667128,47.51364899,
0.6408333182,47.83756638,
0.6424999833,47.31565857,
0.644166708,47.49343491,
0.6458333135,47.86771393,
0.6475000381,47.55759048,
0.6491667032,47.94788361,
0.6508333087,47.4096756,
0.6525000334,47.91117096,
0.6541666389,47.78449249,
0.6558333635,47.97489548,
0.6575000286,48.00930023,
0.6591666341,48.19262695,
0.6608333588,47.72100449,
0.6625000238,47.85951614,
0.6641666889,48.0325737,
0.665833354,47.77513123,
0.6674999595,48.7361908,
0.6691666842,47.7923851,
0.6708333492,47.88407135,
0.6725000143,47.23189926,
0.6741666794,47.53253174,
0.6758333445,47.62957764,
0.6775000095,48.55780792,
0.6791666746,48.04889297,
0.6808333993,48.0594902,
0.6825000048,48.35533905,
0.6841666698,47.61876678,
0.6858333349,47.51699448,
0.6875,47.91968918,
0.6891667247,47.69976807,
0.6908333302,47.6064682,
0.6924999952,47.14991379,
0.6941667199,47.72750473,
0.6958333254,47.84303665,
0.6975000501,47.89985275,
0.6991666555,47.8280983,
0.7008333206,47.81631088,
0.7025000453,47.38153076,
0.7041666508,47.67835236,
0.7058333755,47.77070236,
0.7075000405,48.0281868,
0.709166646,48.28694916,
0.7108333707,47.39741898,
0.7124999762,48.17710876,
0.7141667008,47.76796722,
0.7158333659,47.67297745,
0.7174999714,47.7589798,
0.7191666961,47.17831039,
0.7208333611,47.93053055,
0.7225000262,47.65367508,
0.7241666913,47.87243652,
0.7258332968,48.1581192,
0.7275000215,47.81851959,
0.7291666865,48.03807449,
0.7308333516,47.88356781,
0.7325000167,48.50347137,
0.7341666818,48.11223602,
0.7358333468,47.74416733,
0.7375000119,47.37815094,
0.739166677,47.60593414,
0.7408333421,47.42365646,
0.7425000072,48.38759232,
0.7441666722,47.86296082,
0.7458333373,47.62103653,
0.747500062,48.18992233,
0.7491666675,47.79644394,
0.7508333325,48.96018982,
0.7524999976,47.71547699,
0.7541666627,48.41432953,
0.7558333874,48.04202271,
0.7574999928,48.44176483,
0.7591666579,47.62973785,
0.7608333826,48.7204895,
0.7624999881,47.78458405,
0.7641667128,47.48424911,
0.7658333182,48.44011688,
0.7674999833,48.07385635,
0.769166708,48.69564438,
0.7708333135,48.47005844,
0.7725000381,48.16414261,
0.7741667032,47.59795761,
0.7758333087,48.01822281,
0.7775000334,47.87030411,
0.7791666389,48.03440475,
0.7808333635,48.27531433,
0.7825000286,47.74986649,
0.7841666341,47.63079834,
0.7858333588,47.93930054,
0.7875000238,47.84236145,
0.7891666889,48.05459213,
0.790833354,47.63837433,
0.7924999595,47.70075607,
0.7941666842,47.60798264,
0.7958333492,47.87421799,
0.7975000143,47.83473206,
0.7991666794,47.80417252,
0.8008333445,48.07937622,
0.8025000095,48.14777374,
0.8041666746,48.19813156,
0.8058333993,48.01839447,
0.8075000048,47.2284317,
0.8091666698,47.52886963,
0.8108333349,47.91711426,
0.8125,47.89762878,
0.8141667247,47.79517365,
0.8158333302,47.58521271,
0.8174999952,47.74521637,
0.8191667199,47.11843491,
0.8208333254,47.42202377,
0.8225000501,47.55945587,
0.8241666555,47.98266983,
0.8258333206,48.43160248,
0.8275000453,47.57204056,
0.8291666508,48.47592545,
0.8308333755,47.65142822,
0.8325000405,47.39812088,
0.834166646,47.60219193,
0.8358333707,48.07680893,
0.8374999762,47.98371887,
0.8391667008,47.55641937,
0.8408333659,48.18745804,
0.8424999714,47.35240936,
0.8441666961,47.95995712,
0.8458333611,47.93604279,
0.8475000262,47.8397522,
0.8491666913,48.69121552,
0.8508332968,47.35910416,
0.8525000215,47.42197418,
0.8541666865,47.83510208,
0.8558333516,47.64048004,
0.8575000167,47.54429626,
0.8591666818,48.08470917,
0.8608333468,47.671772,
0.8625000119,48.24758911,
0.864166677,48.16691589,
0.8658333421,48.53930283,
0.8675000072,47.82031631,
0.8691666722,47.97949982,
0.8708333373,48.19613266,
0.872500062,48.63416672,
0.8741666675,47.29912186,
0.8758333325,47.83719635,
0.8774999976,48.03538513,
0.8791666627,47.90350342,
0.8808333874,47.97628403,
0.8824999928,47.62749863,
0.8841666579,47.43296814,
0.8858333826,48.08922958,
0.8874999881,48.10603714,
0.8891667128,47.19977188,
0.8908333182,47.58091736,
0.8924999833,48.10556793,
0.894166708,48.07141495,
0.8958333135,48.04605103,
0.8975000381,49.39129257,
0.8991667032,47.94255829,
0.9008333087,47.78134537,
0.9025000334,47.3860817,
0.9041666389,47.90359497,
0.9058333635,48.42718124,
0.9075000286,47.53008652,
0.9091666341,46.86523056,
0.9108333588,47.90699387,
0.9125000238,48.02605057,
0.9141666889,47.51552963,
0.915833354,47.99503708,
0.9174999595,47.80765533,
0.9191666842,47.6865921,
0.9208333492,47.79641342,
0.9225000143,47.84451294,
0.9241666794,47.70824051,
0.9258333445,47.08706665,
0.9275000095,47.17055893,
0.9291666746,47.27579498,
0.9308333993,47.04414368,
0.9325000048,48.25478745,
0.9341666698,48.40941238,
0.9358333349,47.70213699,
0.9375,48.15366745,
0.9391667247,48.63165665,
0.9408333302,47.15763855,
0.9424999952,48.15127563,
0.9441667199,47.80750275,
0.9458333254,47.85318756,
0.9475000501,47.29283905,
0.9491666555,47.72531509,
0.9508333206,47.61400604,
0.9525000453,47.5999527,
0.9541666508,47.79785156,
0.9558333755,47.32753372,
0.9575000405,47.34283829,
0.959166646,48.3665123,
0.9608333707,48.05067062,
0.9624999762,47.84157944,
0.9641667008,48.31995392,
0.9658333659,47.49542236,
0.9674999714,48.15798187,
0.9691666961,47.06524277,
0.9708333611,47.9082756,
0.9725000262,48.30425644,
0.9741666913,47.3164978,
0.9758332968,47.24839783,
0.9775000215,47.67087936,
0.9791666865,47.39305115,
0.9808333516,48.00710678,
0.9825000167,48.02011108,
0.9841666818,47.93480682,
0.9858333468,47.80786896,
0.9875000119,47.7848053,
0.989166677,47.83390808,
0.9908333421,48.21336365,
0.9925000072,47.43101883,
0.9941666722,48.11628723,
0.9958333373,47.70116425,
0.997500062,47.96723938,
0.9991666675,48.20907974,
1.000833273,47.728405,
1.002500057,47.9617157,
1.004166722,47.74528122,
1.005833387,48.00474167,
1.007500052,47.77124405,
1.009166598,47.98379898,
1.010833383,46.99176407,
1.012500048,47.88497543,
1.014166713,47.73231125,
1.015833378,47.93677139,
1.017500043,47.87837982,
1.019166708,47.48010635,
1.020833373,48.41324615,
1.022500038,48.25318146,
1.024166703,48.25337982,
1.025833368,47.6303978,
1.027500033,47.17363358,
1.029166698,48.23495483,
1.030833364,48.22406387,
1.032500029,47.78086853,
1.034166694,47.82806778,
1.035833359,48.28186417,
1.037500024,48.23811722,
1.039166689,47.8560257,
1.040833354,47.99161148,
1.042500019,48.10163879,
1.044166684,47.24409485,
1.045833349,48.18017578,
1.047500014,47.93809128,
1.049166679,47.91799927,
1.050833344,48.04175949,
1.05250001,47.44959259,
1.054166675,48.41181564,
1.05583334,48.47934723,
1.057500005,47.79465866,
1.05916667,47.97296143,
1.060833335,47.56295395,
1.0625,48.04010773,
1.064166665,48.21606827,
1.06583333,48.04654694,
1.067499995,48.04510117,
1.06916666,48.38020325,
1.070833325,47.79656601,
1.07249999,47.38838959,
1.074166775,47.93547058,
1.07583344,47.76800537,
1.077499986,48.38996506,
1.079166651,47.31837082,
1.080833316,47.47946548,
1.0825001,48.31012344,
1.084166765,48.35375595,
1.085833311,48.62198639,
1.087499976,47.33872604,
1.089166641,48.08333206,
1.090833426,47.81758118,
1.092500091,47.68299484,
1.094166636,47.83977509,
1.095833302,47.48845673,
1.097499967,48.1632843,
1.099166751,47.98339462,
1.100833416,48.2322197,
1.102500081,47.69907761,
1.104166627,47.7495842,
1.105833292,47.74998474,
1.107500076,48.12602234,
1.109166741,48.02144623,
1.110833406,47.36336136,
1.112499952,48.25191879,
1.114166617,48.1364212,
1.115833402,45.71922684,
1.117500067,44.73016357,
1.119166732,46.18717194,
1.120833278,46.1968956,
1.122499943,45.37829971,
1.124166727,48.29890823,
1.125833392,47.66186142,
1.127500057,47.56949234,
1.129166722,43.35210419,
1.130833268,45.47784042,
1.132500052,46.67834473,
1.134166718,43.55041504,
1.135833383,46.83966064,
1.137500048,42.10336685,
1.139166594,47.70702362,
1.140833378,46.95797729,
1.142500043,46.81394958,
1.144166708,46.19234467,
1.145833373,46.5968399,
1.147499919,45.40647888,
1.149166703,46.11677933,
1.150833368,46.10886383,
1.152500033,47.2624855,
1.154166698,45.52270126,
1.155833364,45.42844009,
1.157500029,46.35284424,
1.159166694,45.8042717,
1.160833359,45.19294357,
1.162500024,45.52397919,
1.164166689,46.01795197,
1.165833354,45.5621109,
1.167500019,45.52572632,
1.169166684,45.18496704,
1.170833349,45.67677689,
1.172500014,45.93340302,
1.174166799,45.0560379,
1.175833344,45.59741211,
1.17750001,45.67241287,
1.179166675,45.49773788,
1.18083334,45.7026329,
1.182500124,45.68045807,
1.18416667,45.33910751,
1.185833335,44.9690361,
1.1875,45.09705734,
1.189166665,45.89053345,
1.190833449,45.39942551,
1.192499995,44.93095779,
1.19416666,44.70413971,
1.195833325,44.92737961,
1.19749999,44.72806931,
1.199166775,46.05967331,
1.20083344,45.45918274,
1.202499986,45.09163284,
1.204166651,44.75080872,
1.205833316,44.72429276,
1.2075001,44.54954147,
1.209166765,44.45586014,
1.210833311,44.93494797,
1.212499976,44.57836914,
1.214166641,44.478302,
1.215833426,44.616745,
1.217500091,43.95434952,
1.219166636,44.30770111,
1.220833302,44.77220535,
1.222499967,45.05431366,
1.224166751,44.19171143,
1.225833416,44.17033386,
1.227500081,44.31097031,
1.229166627,43.99845123,
1.230833292,44.01115417,
1.232500076,44.19758224,
1.234166741,44.53385162,
1.235833406,43.37330627,
1.237499952,44.16791153,
1.239166617,43.38328934,
1.240833402,44.31304932,
1.242500067,43.45376587,
1.244166732,43.79108429,
1.245833278,44.54965973,
1.247499943,43.26747513,
1.249166727,43.98538971,
1.250833392,43.58763885,
1.252500057,44.27397156,
1.254166722,43.46234894,
1.255833268,43.60565186,
1.257500052,43.76389313,
1.259166718,43.88635254,
1.260833383,43.69197083,
1.262500048,43.35524368,
1.264166594,43.48890305,
1.265833378,43.4668541,
1.267500043,43.33735275,
1.269166708,43.80738449,
1.270833373,43.90512466,
1.272499919,42.99290085,
1.274166703,43.23665237,
1.275833368,43.45459366,
1.277500033,43.19962311,
1.279166698,43.74355698,
1.280833364,43.41923523,
1.282500029,43.45818329,
1.284166694,43.72270584,
1.285833359,43.39796448,
1.287500024,42.77362442,
1.289166689,43.45711136,
1.290833354,43.12277222,
1.292500019,43.92438889,
1.294166684,43.46101761,
1.295833349,42.69020081,
1.297500014,43.02985001,
1.299166799,43.60720444,
1.300833344,42.93764496,
1.30250001,42.94275665,
1.304166675,42.30287933,
1.30583334,43.31788635,
1.307500124,42.74490738,
1.30916667,43.15130997,
1.310833335,43.21097946,
1.3125,42.19384384,
1.314166665,42.98598862,
1.315833449,42.76387405,
1.317499995,43.03941727,
1.31916666,43.11314774,
1.320833325,42.47613525,
1.32249999,43.06639099,
1.324166775,42.72806168,
1.32583344,42.712677,
1.327499986,42.50039291,
1.329166651,42.65408707,
1.330833316,42.76599884,
1.3325001,41.90643692,
1.334166765,43.09916306,
1.335833311,42.22800827,
1.337499976,42.77156067,
1.339166641,43.35144424,
1.340833426,42.74819946,
1.342500091,42.78430939,
1.344166636,42.18003464,
1.345833302,42.16790771,
1.347499967,42.24308014,
1.349166751,42.31544495,
1.350833416,42.44181061,
1.352500081,42.6125679,
1.354166627,42.46663284,
1.355833292,42.38741302,
1.357500076,42.23617554,
1.359166741,42.17075348,
1.360833406,42.51024628,
1.362499952,41.72623062,
1.364166617,42.65686798,
1.365833402,42.6376915,
1.367500067,42.02120209,
1.369166732,42.32336426,
1.370833278,42.64175034,
1.372499943,42.24051285,
1.374166727,42.19536972,
1.375833392,41.87267303,
1.377500057,41.64442062,
1.379166722,42.06916809,
1.380833268,42.03601074,
1.382500052,42.44613647,
1.384166718,42.09981155,
1.385833383,41.87963486,
1.387500048,41.94041824,
1.389166594,41.65443802,
1.390833378,41.71647263,
1.392500043,41.54395294,
1.394166708,41.78264236,
1.395833373,41.72776794,
1.397499919,42.11700821,
1.399166703,41.55820847,
1.400833368,41.03039169,
1.402500033,42.05532074,
1.404166698,41.02421188,
1.405833364,41.69126129,
1.407500029,41.41161728,
1.409166694,41.65820313,
1.410833359,41.6818161,
1.412500024,40.76443481,
1.414166689,41.95779037,
1.415833354,41.84410095,
1.417500019,41.93548584,
1.419166684,41.12355804,
1.420833349,41.7556839,
1.422500014,41.58005524,
1.424166799,41.86846542,
1.425833344,41.50005722,
1.42750001,41.28096008,
1.429166675,41.5240097,
1.43083334,41.91477966,
1.432500124,42.13172913,
1.43416667,41.71469498,
1.435833335,41.32343674,
1.4375,41.39045334,
1.439166665,41.83336258,
1.440833449,41.00016022,
1.442499995,41.36603928,
1.44416666,41.04336166,
1.445833325,41.31315994,
1.44749999,41.48836899,
1.449166775,41.28205872,
1.45083344,41.83506012,
1.452499986,41.13185883,
1.454166651,41.10452652,
1.455833316,41.56720352,
1.4575001,41.85027313,
1.459166765,41.41738892,
1.460833311,41.41310501,
1.462499976,41.31129074,
1.464166641,40.6116066,
1.465833426,41.10153961,
1.467500091,41.35317993,
1.469166636,41.01327896,
1.470833302,40.80527115,
1.472499967,41.23766327,
1.474166751,41.30844116,
1.475833416,41.13515472,
1.477500081,40.9334259,
1.479166627,40.73112488,
1.480833292,40.97143936,
1.482500076,41.47153473,
1.484166741,40.88615417,
1.485833406,41.02790451,
1.487499952,40.81129074,
1.489166617,41.62244415,
1.490833402,40.89574051,
1.492500067,40.64147949,
1.494166732,41.0268898,
1.495833278,41.24608994,
1.497499943,40.99811172,
1.499166727,40.75553131,
1.500833392,41.32536316,
1.502500057,41.53023911,
1.504166722,40.99490738,
1.505833268,40.54273987,
1.507500052,41.66666794,
1.509166718,40.54851532,
1.510833383,41.2746582,
1.512500048,40.97899628,
1.514166594,41.05396652,
1.515833378,41.16027069,
1.517500043,40.6532135,
1.519166708,40.93904877,
1.520833373,40.18447876,
1.522499919,40.73031998,
1.524166703,40.65644073,
1.525833368,40.71298981,
1.527500033,40.31318283,
1.529166698,40.50108337,
1.530833364,40.59170914,
1.532500029,40.12457657,
1.534166694,40.39531708,
1.535833359,40.47434616,
1.537500024,40.63180161,
1.539166689,40.23450851,
1.540833354,40.87470245,
1.542500019,40.42657471,
1.544166684,40.54574203,
1.545833349,40.58009338,
1.547500014,40.41246033,
1.549166799,40.78096008,
1.550833344,40.38877106,
1.55250001,40.27692032,
1.554166675,40.84378815,
1.55583334,40.42793274,
1.557500124,40.51686859,
1.55916667,40.40038681,
1.560833335,39.686306,
1.5625,39.64331436,
1.564166665,40.25908661,
1.565833449,40.4681015,
1.567499995,40.26595688,
1.56916666,40.55605316,
1.570833325,40.75938416,
1.57249999,40.42137527,
1.574166775,40.66785049,
1.57583344,40.88152313,
1.577499986,40.29188156,
1.579166651,40.09450912,
1.580833316,39.65163422,
1.5825001,40.27260208,
1.584166765,40.23441315,
1.585833311,39.83464432,
1.587499976,40.49941635,
1.589166641,40.25196838,
1.590833426,40.85214996,
1.592500091,40.79365921,
1.594166636,40.20029449,
1.595833302,40.21470642,
1.597499967,40.23295975,
1.599166751,40.37427139,
1.600833416,40.03618622,
1.602500081,40.32540131,
1.604166627,40.44602203,
1.605833292,39.82792282,
1.607500076,40.40850067,
1.609166741,40.25157928,
1.610833406,40.39395142,
1.612499952,40.38698578,
1.614166617,40.20664215,
1.615833402,39.97492599,
1.617500067,40.18877411,
1.619166732,39.96335983,
1.620833278,39.8319397,
1.622499943,40.11450958,
1.624166727,39.76702881,
1.625833392,39.89415741,
1.627500057,40.00527191,
1.629166722,40.33047867,
1.630833268,39.79510498,
1.632500052,39.5799942,
1.634166718,39.70412445,
1.635833383,39.94398117,
1.637500048,40.41219711,
1.639166594,40.23423386,
1.640833378,40.09843445,
1.642500043,39.88636398,
1.644166708,40.34742737,
1.645833373,40.11966705,
1.647499919,39.65860748,
1.649166703,39.92675781,
1.650833368,40.19538879,
1.652500033,40.1772995,
1.654166698,39.746418,
1.655833364,39.73794556,
1.657500029,40.25308228,
1.659166694,40.15575027,
1.660833359,39.86553955,
1.662500024,39.64552689,
1.664166689,39.28875732,
1.665833354,39.84812927,
1.667500019,39.40019226,
1.669166684,39.81391525,
1.670833349,39.99832535,
1.672500014,39.41075897,
1.674166799,40.21656036,
1.675833344,39.83967209,
1.67750001,39.54242706,
1.679166675,39.92100143,
1.68083334,39.88698196,
1.682500124,39.2094841,
1.68416667,39.75712967,
1.685833335,39.74933624,
1.6875,39.79986954,
1.689166665,39.44338989,
1.690833449,40.05495834,
1.692499995,40.24974442,
1.69416666,39.27084351,
1.695833325,39.16137314,
1.69749999,39.57988358,
1.699166775,39.94681549,
1.70083344,39.46860886,
1.702499986,39.73666763,
1.704166651,39.57143402,
1.705833316,39.41290283,
1.7075001,39.86181259,
1.709166765,39.25215912,
1.710833311,39.16123199,
1.712499976,39.63102341,
1.714166641,39.39388657,
1.715833426,39.21059799,
1.717500091,39.46741486,
1.719166636,39.16002274,
1.720833302,39.76287842,
1.722499967,39.91577911,
1.724166751,39.21286392,
1.725833416,39.37059402,
1.727500081,39.50217438,
1.729166627,39.99570084,
1.730833292,39.35564423,
1.732500076,39.50146866,
1.734166741,39.89152527,
1.735833406,39.56554794,
1.737499952,39.9729538,
1.739166617,39.77696228,
1.740833402,39.25502396,
1.742500067,38.89047623,
1.744166732,39.46308517,
1.745833278,39.86112213,
1.747499943,39.1583519,
1.749166727,39.05373764,
1.750833392,39.40111542,
1.752500057,39.56943893,
1.754166722,39.77871704,
1.755833268,39.79068375,
1.757500052,39.65589142,
1.759166718,39.80947113,
1.760833383,39.37543106,
1.762500048,39.21894836,
1.764166594,39.26485443,
1.765833378,39.18425369,
1.767500043,39.28947449,
1.769166708,39.03585815,
1.770833373,39.46370697,
1.772499919,39.60682297,
1.774166703,38.92438507,
1.775833368,39.03770065,
1.777500033,39.86177444,
1.779166698,39.58883667,
1.780833364,39.58323288,
1.782500029,39.46138,
1.784166694,39.41625595,
1.785833359,38.84140778,
1.787500024,39.33436966,
1.789166689,39.47806549,
1.790833354,39.158638,
1.792500019,39.40953827,
1.794166684,39.13632202,
1.795833349,39.30797958,
1.797500014,39.52414703,
1.799166799,39.38351059,
1.800833344,39.114254,
1.80250001,39.18177032,
1.804166675,39.75722504,
1.80583334,39.177948,
1.807500124,39.32358932,
1.80916667,39.43086243,
1.810833335,39.35898972,
1.8125,38.95560837,
1.814166665,39.3936348,
1.815833449,39.37309265,
1.817499995,39.00476456,
1.81916666,38.92061615,
1.820833325,39.25798035,
1.82249999,39.11654663,
1.824166775,38.86742401,
1.82583344,39.29340363,
1.827499986,39.05290604,
1.829166651,39.08456421,
1.830833316,39.2269783,
1.8325001,39.43944931,
1.834166765,38.73657608,
1.835833311,39.46777344,
1.837499976,39.14928055,
1.839166641,38.97854233,
1.840833426,39.16063309,
1.842500091,39.22806549,
1.844166636,39.04368973,
1.845833302,39.63573837,
1.847499967,39.41495514,
1.849166751,39.10997391,
1.850833416,39.59034729,
1.852500081,39.02978134,
1.854166627,38.87335587,
1.855833292,39.38260269,
1.857500076,39.1603508,
1.859166741,38.64505005,
1.860833406,39.11781311,
1.862499952,39.12752151,
1.864166617,39.32684326,
1.865833402,39.04005051,
1.867500067,39.01377487,
1.869166732,39.33723068,
1.870833278,39.185112,
1.872499943,39.24161911,
1.874166727,38.6783638,
1.875833392,39.44458008,
1.877500057,39.42245102,
1.879166722,38.98413086,
1.880833268,38.53432846,
1.882500052,39.2814827,
1.884166718,39.24537659,
1.885833383,38.85439301,
1.887500048,38.5722084,
1.889166594,39.23527527,
1.890833378,38.68140793,
1.892500043,39.34798813,
1.894166708,38.47169113,
1.895833373,38.2797966,
1.897499919,38.94660568,
1.899166703,38.8055954,
1.900833368,39.23950195,
1.902500033,38.95347595,
1.904166698,38.67837906,
1.905833364,38.8661232,
1.907500029,39.19834518,
1.909166694,39.58159256,
1.910833359,38.97173691,
1.912500024,38.25016022,
1.914166689,39.29628754,
1.915833354,38.53107834,
1.917500019,38.47426605,
1.919166684,39.12016678,
1.920833349,39.49282074,
1.922500014,38.67058563,
1.924166799,39.2084198,
1.925833344,39.1437645,
1.92750001,39.30249405,
1.929166675,38.64622879,
1.93083334,38.85847855,
1.932500124,38.5875473,
1.93416667,38.51192856,
1.935833335,38.69852829,
1.9375,38.4258194,
1.939166665,38.67658997,
1.940833449,39.02568817,
1.942499995,39.05038071,
1.94416666,39.10949707,
1.945833325,38.7312355,
1.94749999,39.10158157,
1.949166775,38.22244644,
1.95083344,38.31628418,
1.952499986,38.71403122,
1.954166651,38.52848434,
1.955833316,38.14591599,
1.9575001,38.70127106,
1.959166765,38.59715271,
1.960833311,38.18254471,
1.962499976,38.47187424,
1.964166641,38.48341751,
1.965833426,38.94179535,
1.967500091,38.74898529,
1.969166636,38.42199326,
1.970833302,38.82455444,
1.972499967,38.734272,
1.974166751,38.29686737,
1.975833416,38.69736862,
1.977500081,38.73753357,
1.979166627,38.41711044,
1.980833292,38.70059967,
1.982500076,38.6347847,
1.984166741,39.16199493,
1.985833406,38.74745178,
1.987499952,38.41543198,
1.989166617,39.0884552,
1.990833402,38.90140915,
1.992500067,39.35656738,
1.994166732,39.19521713,
1.995833278,38.08085632,
1.997499943,38.82764435,
1.999166727,38.19727325,
2.000833273,38.51160812,
2.002500057,38.63753891,
2.004166603,38.2424202,
2.005833387,38.47254562,
2.007500172,38.84289169,
2.009166718,38.5974617,
2.010833263,38.4629097,
2.012500048,39.07151794,
2.014166594,38.61450958,
2.015833378,38.23286819,
2.017500162,38.10152817,
2.019166708,38.36289978,
2.020833254,38.64653397,
2.022500038,39.38203812,
2.024166822,38.58096695,
2.025833368,37.88960266,
2.027499914,38.36968613,
2.029166698,38.42311478,
2.030833244,38.22259903,
2.032500029,38.95673752,
2.034166813,38.67151642,
2.035833359,38.59984207,
2.037499905,38.79487991,
2.039166689,38.01706696,
2.040833473,38.11225128,
2.042500019,38.31083298,
2.044166803,38.75177383,
2.045833349,38.79545212,
2.047499895,38.2063942,
2.049166679,38.14962006,
2.050833464,38.30464935,
2.05250001,38.65331268,
2.054166555,37.8619957,
2.05583334,38.56164932,
2.057500124,38.41727829,
2.05916667,38.26881409,
2.060833454,38.7854805,
2.0625,39.15525055,
2.064166546,38.21907425,
2.06583333,39.00729752,
2.067500114,38.31408691,
2.06916666,38.1789856,
2.070833445,38.5136528,
2.07249999,38.04351044,
2.074166775,38.57369995,
2.075833321,38.09180832,
2.077500105,38.9244957,
2.079166651,38.22828674,
2.080833197,38.34703445,
2.082499981,38.07780838,
2.084166765,38.49044037,
2.085833311,38.78738785,
2.087500095,38.54361725,
2.089166641,38.3241539,
2.090833426,38.0538826,
2.092499971,38.57780075,
2.094166756,38.33352661,
2.095833302,37.80303574,
2.097500086,38.38583755,
2.099166632,38.32379913,
2.100833416,38.83735657,
2.102499962,38.18592072,
2.104166746,38.26533508,
2.105833292,38.40502167,
2.107500076,38.17406464,
2.109166622,38.05846024,
2.110833406,38.15008163,
2.112499952,38.07617569,
2.114166737,38.41444778,
2.115833521,38.28416443,
2.117500067,38.52355576,
2.119166613,38.25207901,
2.120833397,37.88308716,
2.122499943,38.31708145,
2.124166727,37.83148956,
2.125833273,38.75279617,
2.127500057,38.34606552,
2.129166603,38.4045105,
2.130833387,38.44239426,
2.132500172,38.18222427,
2.134166718,38.87751007,
2.135833502,38.68828201,
2.137500048,38.20742035,
2.139166832,38.66280746,
2.140833378,38.02378082,
2.142500162,38.11651611,
2.144166708,38.25107574,
2.145833254,37.78940201,
2.147500038,38.54273987,
2.149166584,37.87261963,
2.150833368,38.30963898,
2.152500153,38.18858719,
2.154166698,38.14940643,
2.155833483,38.18922806,
2.157500029,38.00347137,
2.159166813,37.89693069,
2.160833597,38.4638176,
2.162499905,38.1566124,
2.164166689,38.43919373,
2.165833235,38.31713486,
2.167500019,38.12701797,
2.169166803,38.47034836,
2.170833349,38.40668488,
2.172500134,38.64575958,
2.174166679,38.14942932,
2.175833464,38.03922272,
2.177500248,38.32633972,
2.179166555,38.42104721,
2.18083334,38.10087585,
2.182499886,38.23853302,
2.18416667,37.89461517,
2.185833454,38.2651825,
2.1875,37.63542938,
2.189166784,38.0063858,
2.19083333,37.4948082,
2.192500114,38.05983734,
2.194166899,37.83941269,
2.195833445,38.33730316,
2.19749999,38.32298279,
2.199166536,38.17409515,
2.200833321,38.08009338,
2.202500105,38.18746185,
2.204166651,38.59922791,
2.205833435,37.68433762,
2.207499981,38.01398087,
2.209166765,38.15800476,
2.210833549,38.0790062,
2.212500095,37.63969803,
2.21416688,37.74098206,
2.215833187,38.38459015,
2.217499971,38.25608826,
2.219166756,38.49489212,
2.220833302,38.46858215,
2.222500086,38.24779129,
2.224166632,38.17343521,
2.225833416,38.65044022,
2.2275002,37.79915619,
2.229166746,38.08020782,
2.23083353,38.50324631,
2.232499838,37.96963501,
2.234166622,38.06894302,
2.235833406,37.63009644,
2.237499952,38.20839691,
2.239166737,38.26618576,
2.240833282,37.99816895,
2.242500067,38.35417175,
2.244166851,38.4379158,
2.245833397,37.78949356,
2.247500181,38.42805862,
2.249166727,38.00101471,
2.250833273,37.68977356,
2.252500057,37.88366699,
2.254166603,38.32581711,
2.255833387,38.43180466,
2.257499933,37.70184326,
2.259166718,38.01675034,
2.260833502,38.52420807,
2.262500048,38.22106171,
2.264166832,38.36995316,
2.265833378,37.79512787,
2.267500162,38.46154022,
2.269166708,38.43030167,
2.270833254,37.58393097,
2.272500038,37.58416748,
2.274166584,37.82011795,
2.275833368,37.68594742,
2.277500153,38.70868301,
2.279166698,38.03951263,
2.280833483,37.91996002,
2.282500029,37.91505432,
2.284166813,38.46041107,
2.285833597,38.04898453,
2.287499905,38.30701065,
2.289166689,38.00536346,
2.290833235,37.26137543,
2.292500019,37.78696442,
2.294166803,37.58479309,
2.295833349,37.54746246,
2.297500134,37.84622955,
2.299166679,38.13829803,
2.300833464,37.92612839,
2.302500248,37.70056915,
2.304166555,38.15792465,
2.30583334,37.72946548,
2.307499886,38.47845078,
2.30916667,37.59335709,
2.310833454,37.61641693,
2.3125,38.06155777,
2.314166784,37.69929504,
2.31583333,38.37329865,
2.317500114,37.31378555,
2.319166899,37.62125397,
2.320833445,38.26939392,
2.32249999,37.8646431,
2.324166536,37.95301056,
2.325833321,37.4407196,
2.327500105,37.83138275,
2.329166651,37.40693665,
2.330833435,37.8030014,
2.332499981,37.54990768,
2.334166765,37.97977066,
2.335833549,38.1472168,
2.337500095,37.4189682,
2.33916688,37.96989441,
2.340833187,38.97679138,
2.342499971,38.31063843,
2.344166756,37.87319565,
2.345833302,37.86755371,
2.347500086,37.99451828,
2.349166632,37.21993637,
2.350833416,37.94960403,
2.3525002,37.77646255,
2.354166746,38.00862885,
2.35583353,37.41083145,
2.357499838,37.44950485,
2.359166622,37.57629013,
2.360833406,37.98890305,
2.362499952,37.98941422,
2.364166737,37.57027817,
2.365833282,38.01277542,
2.367500067,38.03703308,
2.369166851,37.6026001,
2.370833397,37.58615494,
2.372500181,37.78701019,
2.374166727,37.63306046,
2.375833273,38.38056183,
2.377500057,37.81759262,
2.379166603,36.75507736,
2.380833387,38.2065239,
2.382499933,38.41929245,
2.384166718,37.87674332,
2.385833502,37.83491135,
2.387500048,37.91410065,
2.389166832,37.77584839,
2.390833378,37.79427338,
2.392500162,37.5317955,
2.394166708,37.61848068,
2.395833254,38.22027206,
2.397500038,37.88396072,
2.399166584,37.19255447,
2.400833368,37.71078873,
2.402500153,37.68431854,
2.404166698,38.24173737,
2.405833483,38.00864792,
2.407500029,38.47478485,
2.409166813,37.63697815,
2.410833597,37.11360931,
2.412499905,37.76534271,
2.414166689,37.79269028,
2.415833235,37.83332443,
2.417500019,37.6689949,
2.419166803,37.44792938,
2.420833349,37.50810242,
2.422500134,37.30830765,
2.424166679,38.01850891,
2.425833464,37.83418655,
2.427500248,37.639328,
2.429166555,37.30353928,
2.43083334,37.31861115,
2.432499886,37.31058121,
2.43416667,37.18365479,
2.435833454,37.46504593,
2.4375,37.36413956,
2.439166784,38.13837433,
2.44083333,37.60524368,
2.442500114,37.74556351,
2.444166899,37.66801071,
2.445833445,38.15643692,
2.44749999,37.36580276,
2.449166536,37.27923203,
2.450833321,37.89337921,
2.452500105,37.74529648,
2.454166651,38.01140213,
2.455833435,37.7059021,
2.457499981,38.22478485,
2.459166765,37.98079681,
2.460833549,37.75740433,
2.462500095,37.94472885,
2.46416688,37.86410904,
2.465833187,38.27898407,
2.467499971,37.45253372,
2.469166756,37.82418823,
2.470833302,38.0827713,
2.472500086,37.64526749,
2.474166632,37.80248642,
2.475833416,37.80099487,
2.4775002,37.81356812,
2.479166746,37.74745178,
2.48083353,37.77394104,
2.482499838,37.27193832,
2.484166622,37.87209702,
2.485833406,37.66815567,
2.487499952,37.56456757,
2.489166737,37.66465759,
2.490833282,37.41662979,
2.492500067,37.45142365,
2.494166851,37.4272728,
2.495833397,37.41064835,
2.497500181,37.30295181,
2.499166727,37.48751068,
2.500833273,37.4378891,
2.502500057,38.29702759,
2.504166603,38.02294922,
2.505833387,37.46078491,
2.507499933,37.26498795,
2.509166718,37.54693222,
2.510833502,37.84752655,
2.512500048,37.70946503,
2.514166832,37.79005814,
2.515833378,38.13153458,
2.517500162,37.23807526,
2.519166708,37.38603592,
2.520833254,38.06102753,
2.522500038,37.23391342,
2.524166584,37.87915039,
2.525833368,37.48731613,
2.527500153,37.66164017,
2.529166698,37.95929337,
2.530833483,37.94366074,
2.532500029,37.4580574,
2.534166813,37.48649597,
2.535833597,37.21560669,
2.537499905,37.62001801,
2.539166689,37.61128616,
2.540833235,37.72925186,
2.542500019,37.34220123,
2.544166803,37.57548141,
2.545833349,37.51498413,
2.547500134,37.83078766,
2.549166679,37.05008316,
2.550833464,37.82195282,
2.552500248,37.71277237,
2.554166555,36.98836136,
2.55583334,37.89091873,
2.557499886,38.06300735,
2.55916667,37.61208725,
2.560833454,37.68325043,
2.5625,38.29754639,
2.564166784,37.59719467,
2.56583333,37.62782288,
2.567500114,37.77756882,
2.569166899,38.03861237,
2.570833445,37.5570755,
2.57249999,37.62725449,
2.574166536,37.74324417,
2.575833321,37.26357269,
2.577500105,37.39603424,
2.579166651,37.36687469,
2.580833435,37.22516251,
2.582499981,37.73794556,
2.584166765,37.3080368,
2.585833549,37.65411377,
2.587500095,37.12513351,
2.58916688,37.02965546,
2.590833187,37.10330582,
2.592499971,37.37662506,
2.594166756,37.23097229,
2.595833302,37.90207672,
2.597500086,37.26392365,
2.599166632,37.60302353,
2.600833416,38.23891068,
2.6025002,37.71357346,
2.604166746,37.89523697,
2.60583353,36.96057129,
2.607499838,37.83546448,
2.609166622,37.34160233,
2.610833406,37.44501114,
2.612499952,37.26475143,
2.614166737,37.58118057,
2.615833282,37.40790939,
2.617500067,37.58569717,
2.619166851,37.42748642,
2.620833397,37.74183273,
2.622500181,36.84957886,
2.624166727,38.01457214,
2.625833273,37.35811615,
2.627500057,37.39392853,
2.629166603,37.54648209,
2.630833387,37.26953888,
2.632499933,37.26473999,
2.634166718,37.87779999,
2.635833502,37.79016495,
2.637500048,37.68198395,
2.639166832,37.63511658,
2.640833378,37.37872696,
2.642500162,37.26315689,
2.644166708,37.21942902,
2.645833254,37.48027802,
2.647500038,37.70206833,
2.649166584,37.22520065,
2.650833368,37.35360718,
2.652500153,37.64480972,
2.654166698,37.597229,
2.655833483,37.53874969,
2.657500029,37.16546631,
2.659166813,37.38881302,
2.660833597,37.59686279,
2.662499905,37.87887955,
2.664166689,37.31824875,
2.665833235,37.53493118,
2.667500019,37.9719429,
2.669166803,37.72216797,
2.670833349,37.09378433,
2.672500134,37.69703674,
2.674166679,37.58913422,
2.675833464,37.09318161,
2.677500248,37.44824982,
2.679166555,37.56523514,
2.68083334,37.29037476,
2.682499886,37.50345993,
2.68416667,37.57745361,
2.685833454,37.90058136,
2.6875,36.94435501,
2.689166784,37.44291306,
2.69083333,37.19959259,
2.692500114,37.36516953,
2.694166899,37.52733231,
2.695833445,37.63389969,
2.69749999,37.42682266,
2.699166536,37.77866364,
2.700833321,37.82458496,
2.702500105,37.32478333,
2.704166651,37.49253845,
2.705833435,37.24828339,
2.707499981,37.33044815,
2.709166765,36.93869781,
2.710833549,37.41560364,
2.712500095,37.55119705,
2.71416688,36.88760376,
2.715833187,37.81874084,
2.717499971,37.04974365,
2.719166756,37.76282883,
2.720833302,37.37137985,
2.722500086,37.06970215,
2.724166632,37.82767868,
2.725833416,37.48002243,
2.7275002,37.91740417,
2.729166746,37.68009567,
2.73083353,37.34951782,
2.732499838,37.21163177,
2.734166622,37.89732742,
2.735833406,37.13064575,
2.737499952,36.63072586,
2.739166737,37.72872162,
2.740833282,37.32881165,
2.742500067,37.51486969,
2.744166851,37.54482651,
2.745833397,37.5961113,
2.747500181,37.45422363,
2.749166727,37.66143036,
2.750833273,37.40441513,
2.752500057,37.29927063,
2.754166603,37.39253235,
2.755833387,37.83241272,
2.757499933,37.60635376,
2.759166718,37.74622345,
2.760833502,37.68590164,
2.762500048,37.41006088,
2.764166832,37.34371185,
2.765833378,37.82075119,
2.767500162,37.26393509,
2.769166708,37.68745804,
2.770833254,37.64751053,
2.772500038,37.46087265,
2.774166584,37.11462784,
2.775833368,36.83663177,
2.777500153,36.82598114,
2.779166698,36.80320358,
2.780833483,37.56457138,
2.782500029,37.52178955,
2.784166813,37.2313652,
2.785833597,37.47651291,
2.787499905,37.41268921,
2.789166689,37.61672592,
2.790833235,37.26580429,
2.792500019,37.8980751,
2.794166803,36.51742172,
2.795833349,37.80502701,
2.797500134,37.08039856,
2.799166679,37.28592682,
2.800833464,36.90137863,
2.802500248,36.98204803,
2.804166555,37.12498856,
2.80583334,37.96304703,
2.807499886,37.28308487,
2.80916667,37.49748993,
2.810833454,37.11299133,
2.8125,37.20736694,
2.814166784,36.89560699,
2.81583333,37.90227509,
2.817500114,36.87058258,
2.819166899,37.00978088,
2.820833445,37.0776329,
2.82249999,37.21721268,
2.824166536,37.51453781,
2.825833321,37.68128204,
2.827500105,37.0960083,
2.829166651,37.16983414,
2.830833435,36.88075638,
2.832499981,37.73923874,
2.834166765,37.6266861,
2.835833549,37.22322845,
2.837500095,37.52492142,
2.83916688,37.03792191,
2.840833187,37.73867416,
2.842499971,37.70117188,
2.844166756,37.48085022,
2.845833302,37.8101387,
2.847500086,36.76629639,
2.849166632,37.22990417,
2.850833416,37.21068192,
2.8525002,37.11068344,
2.854166746,36.91860199,
2.85583353,37.54522705,
2.857499838,37.48577499,
2.859166622,37.20537949,
2.860833406,36.80630112,
2.862499952,37.12162018,
2.864166737,36.75458145,
2.865833282,36.96319199,
2.867500067,36.65641403,
2.869166851,37.65009308,
2.870833397,36.5870285,
2.872500181,37.17708969,
2.874166727,36.74531174,
2.875833273,36.8585434,
2.877500057,36.7819519,
2.879166603,36.62366104,
2.880833387,36.93909454,
2.882499933,37.56161499,
2.884166718,37.23711014,
2.885833502,37.52338409,
2.887500048,36.84830475,
2.889166832,36.85878754,
2.890833378,38.06407166,
2.892500162,36.88787079,
2.894166708,37.01414108,
2.895833254,36.74408722,
2.897500038,37.2974205,
2.899166584,37.25445938,
2.900833368,36.25734711,
2.902500153,37.40081024,
2.904166698,37.52493668,
2.905833483,37.05619812,
2.907500029,37.11825562,
2.909166813,37.4054451,
2.910833597,36.78638077,
2.912499905,37.4455452,
2.914166689,37.27568054,
2.915833235,36.85374451,
2.917500019,37.1258316,
2.919166803,37.23035049,
2.920833349,36.84470749,
2.922500134,36.98298264,
2.924166679,36.95580292,
2.925833464,37.3272934,
2.927500248,37.32864761,
2.929166555,36.9107399,
2.93083334,36.95059204,
2.932499886,36.77033234,
2.93416667,37.46744537,
2.935833454,36.56620407,
2.9375,37.07196045,
2.939166784,37.43730927,
2.94083333,36.44828415,
2.942500114,36.72988892,
2.944166899,37.1000824,
2.945833445,37.56227112,
2.94749999,36.93338776,
2.949166536,37.43179321,
2.950833321,37.17576599,
2.952500105,36.86771393,
2.954166651,37.12155914,
2.955833435,36.7555275,
2.957499981,37.25731277,
2.959166765,37.30307388,
2.960833549,37.03125381,
2.962500095,37.18548584,
2.96416688,37.03746796,
2.965833187,37.36105347,
2.967499971,37.14916992,
2.969166756,37.33630371,
2.970833302,36.77692795,
2.972500086,36.95975494,
2.974166632,36.56427002,
2.975833416,37.22267532,
2.9775002,36.90824509,
2.979166746,37.18194962,
2.98083353,36.86100006,
2.982499838,37.18503189,
2.984166622,36.93054581,
2.985833406,36.65875626,
2.987499952,37.20137024,
2.989166737,37.43209076,
2.990833282,36.5572052,
2.992500067,37.44355392,
2.994166851,36.76237106,
2.995833397,37.30303192,
2.997500181,36.50115585,
2.999166727,36.56739426,
3.000833273,36.96384048,
3.002500057,37.56033707,
3.004166603,36.74110031,
3.005833387,37.24198151,
3.007499933,37.1655426,
3.009166718,37.26337051,
3.010833502,36.58250046,
3.012500048,36.9326973,
3.014166832,37.14538193,
3.015833378,36.96604538,
3.017500162,36.62930679,
3.019166708,37.64640808,
3.020833254,36.90039063,
3.022500038,37.06438446,
3.024166584,37.47239685,
3.025833368,37.52886963,
3.027500153,36.79978943,
3.029166698,36.59909058,
3.030833483,37.51178741,
3.032500029,37.28115463,
3.034166813,37.21815491,
3.035833597,36.83463669,
3.037499905,37.17724609,
3.039166689,37.22092819,
3.040833235,37.08387756,
3.042500019,37.71776962,
3.044166803,36.69296646,
3.045833349,37.07527924,
3.047500134,37.44927979,
3.049166679,37.16397476,
3.050833464,36.91097641,
3.052500248,37.04644012,
3.054166555,37.30733109,
3.05583334,37.24179077,
3.057499886,36.67017365,
3.05916667,36.87122345,
3.060833454,36.52536392,
3.0625,36.56741714,
3.064166784,37.15456009,
3.06583333,36.6100235,
3.067500114,36.77988052,
3.069166899,36.93525314,
3.070833445,37.32112122,
3.07249999,36.90774918,
3.074166536,36.94492722,
3.075833321,37.03440094,
3.077500105,36.76676559,
3.079166651,37.57715988,
3.080833435,36.9091835,
3.082499981,36.85102844,
3.084166765,36.64974213,
3.085833549,36.91892624,
3.087500095,36.92054749,
3.08916688,36.96348953,
3.090833187,37.10769272,
3.092499971,37.80484009,
3.094166756,37.11581039,
3.095833302,37.48376846,
3.097500086,36.75119781,
3.099166632,37.13192749,
3.100833416,37.23295212,
3.1025002,36.56157303,
3.104166746,37.19543076,
3.10583353,36.21264648,
3.107499838,36.55940628,
3.109166622,37.20821762,
3.110833406,36.71521378,
3.112499952,36.63374329,
3.114166737,37.09511566,
3.115833282,37.16931915,
3.117500067,36.83650208,
3.119166851,37.70339584,
3.120833397,36.86229706,
3.122500181,36.73390198,
3.124166727,37.26454926,
3.125833273,36.88004303,
3.127500057,36.82429504,
3.129166603,36.86141205,
3.130833387,36.70252609,
3.132499933,37.31012344,
3.134166718,36.63975906,
3.135833502,36.60171509,
3.137500048,36.59733963,
3.139166832,36.87389755,
3.140833378,36.68122864,
3.142500162,36.98407364,
3.144166708,37.03637314,
3.145833254,36.89532089,
3.147500038,36.98939514,
3.149166584,36.44686508,
3.150833368,36.74885178,
3.152500153,36.45907593,
3.154166698,37.01568985,
3.155833483,36.76215363,
3.157500029,36.68903351,
3.159166813,37.43894958,
3.160833597,37.35673904,
3.162499905,36.69987488,
3.164166689,37.26216888,
3.165833235,37.33566666,
3.167500019,36.98768234,
3.169166803,36.22578049,
3.170833349,36.92577744,
3.172500134,36.65125275,
3.174166679,36.5817337,
3.175833464,36.44010162,
3.177500248,36.92025375,
3.179166555,36.50053024,
3.18083334,36.71257019,
3.182499886,36.6484108,
3.18416667,36.87795258,
3.185833454,37.04579163,
3.1875,36.92614365,
3.189166784,36.94065857,
3.19083333,37.92050552,
3.192500114,36.68791199,
3.194166899,36.80477524,
3.195833445,37.52803802,
3.19749999,36.9282608,
3.199166536,36.99100113,
3.200833321,36.54520416,
3.202500105,36.66672516,
3.204166651,36.90979767,
3.205833435,36.76826096,
3.207499981,36.5853653,
3.209166765,36.90168762,
3.210833549,36.84673691,
3.212500095,37.19030762,
3.21416688,36.33906174,
3.215833187,36.72544479,
3.217499971,36.70628357,
3.219166756,36.78247452,
3.220833302,36.67989349,
3.222500086,36.36203003,
3.224166632,36.171875,
3.225833416,37.80081177,
3.2275002,37.10507202,
3.229166746,36.23604584,
3.23083353,36.41140366,
3.232499838,37.00577545,
3.234166622,36.34594345,
3.235833406,37.33827209,
3.237499952,37.18022537,
3.239166737,37.32493591,
3.240833282,37.14461517,
3.242500067,36.98448944,
3.244166851,36.86792374,
3.245833397,36.85836411,
3.247500181,36.67631149,
3.249166727,36.52265167,
3.250833273,36.65080643,
3.252500057,36.86968613,
3.254166603,37.02950668,
3.255833387,37.18832397,
3.257499933,37.04034042,
3.259166718,37.18561554,
3.260833502,37.10109329,
3.262500048,37.02171707,
3.264166832,36.19753265,
3.265833378,36.88080597,
3.267500162,36.49501419,
3.269166708,36.71285248,
3.270833254,36.97651291,
3.272500038,36.74592209,
3.274166584,36.6618309,
3.275833368,36.81131363,
3.277500153,36.89138031,
3.279166698,36.70251465,
3.280833483,36.67436981,
3.282500029,36.6649437,
3.284166813,36.38609314,
3.285833597,37.22344208,
3.287499905,36.7563591,
3.289166689,37.12654114,
3.290833235,36.51723862,
3.292500019,36.62876129,
3.294166803,36.73513412,
3.295833349,36.79259109,
3.297500134,37.03725815,
3.299166679,36.81119537,
3.300833464,36.66945648,
3.302500248,36.43971252,
3.304166555,36.4596405,
3.30583334,36.85777283,
3.307499886,36.82011414,
3.30916667,37.22592926,
3.310833454,36.24591064,
3.3125,36.91506195,
3.314166784,37.16043091,
3.31583333,35.82638168,
3.317500114,36.31134415,
3.319166899,36.51360703,
3.320833445,36.67022324,
3.32249999,36.72958374,
3.324166536,36.84862518,
3.325833321,36.97481155,
3.327500105,37.33699799,
3.329166651,36.84484482,
3.330833435,36.30984116,
3.332499981,36.48820114,
3.334166765,36.39480591,
3.335833549,37.20149994,
3.337500095,36.77114868,
3.33916688,37.00344467,
3.340833187,37.09524155,
3.342499971,36.35620499,
3.344166756,36.79340363,
3.345833302,37.38442993,
3.347500086,36.94285965,
3.349166632,36.8032608,
3.350833416,36.83047485,
3.3525002,36.7615242,
3.354166746,36.43280792,
3.35583353,36.86693573,
3.357499838,36.924263,
3.359166622,36.87123108,
3.360833406,36.78620911,
3.362499952,37.16026306,
3.364166737,36.33304596,
3.365833282,36.90578842,
3.367500067,36.87844849,
3.369166851,36.52613068,
3.370833397,36.94015121,
3.372500181,36.59434509,
3.374166727,37.07051086,
3.375833273,36.46984863,
3.377500057,36.54534149,
3.379166603,36.71108627,
3.380833387,37.07254791,
3.382499933,37.0966301,
3.384166718,37.21109772,
3.385833502,36.82211304,
3.387500048,36.89057541,
3.389166832,37.17936707,
3.390833378,37.56893921,
3.392500162,36.71224213,
3.394166708,36.40612793,
3.395833254,36.65533447,
3.397500038,36.94859695,
3.399166584,36.84188843,
3.400833368,36.23396301,
3.402500153,36.77326202,
3.404166698,37.28849411,
3.405833483,36.82039261,
3.407500029,36.68688583,
3.409166813,36.74023438,
3.410833597,37.1013031,
3.412499905,36.28291321,
3.414166689,36.76194382,
3.415833235,36.68252182,
3.417500019,36.90400696,
3.419166803,36.35655594,
3.420833349,36.46190262,
3.422500134,37.13685608,
3.424166679,37.15177536,
3.425833464,36.58580017,
3.427500248,36.65362167,
3.429166555,37.14575195,
3.43083334,36.57556152,
3.432499886,36.21665573,
3.43416667,36.78346252,
3.435833454,36.4459877,
3.4375,36.52460098,
3.439166784,36.58616257,
3.44083333,36.39260864,
3.442500114,36.29008484,
3.444166899,37.04999161,
3.445833445,36.82187653,
3.44749999,36.68043137,
3.449166536,36.49417877,
3.450833321,36.74702072,
3.452500105,36.81798935,
3.454166651,36.71927643,
3.455833435,36.32093811,
3.457499981,36.67095947,
3.459166765,36.79931641,
3.460833549,36.55465698,
3.462500095,37.14352417,
3.46416688,36.49781036,
3.465833187,36.7418251,
3.467499971,36.30108261,
3.469166756,36.75629044,
3.470833302,36.37784576,
3.472500086,37.32583237,
3.474166632,36.80908203,
3.475833416,36.66793823,
3.4775002,36.73226547,
3.479166746,36.50115967,
3.48083353,36.41740036,
3.482499838,36.88788605,
3.484166622,36.57464218,
3.485833406,37.01077271,
3.487499952,36.38141632,
3.489166737,36.80900955,
3.490833282,36.23167038,
3.492500067,36.78139114,
3.494166851,37.32978821,
3.495833397,36.57117462,
3.497500181,36.86373138,
3.499166727,36.31642532,
3.500833273,37.15392685,
3.502500057,36.37387848,
3.504166603,36.37659836,
3.505833387,36.00320435,
3.507499933,36.62395096,
3.509166718,36.59974289,
3.510833502,37.17361832,
3.512500048,36.84134293,
3.514166832,36.19683456,
3.515833378,36.26817322,
3.517500162,36.77196884,
3.519166708,36.85785675,
3.520833254,36.76635742,
3.522500038,36.71431732,
3.524166584,36.9641037,
3.525833368,36.44657898,
3.527500153,36.48019791,
3.529166698,36.68980789,
3.530833483,36.53550339,
3.532500029,36.6530304,
3.534166813,36.64551926,
3.535833597,36.95475006,
3.537499905,36.55407715,
3.539166689,36.79744339,
3.540833235,36.77552414,
3.542500019,36.81748962,
3.544166803,37.02206039,
3.545833349,36.72301483,
3.547500134,36.80591965,
3.549166679,36.8150177,
3.550833464,36.63638687,
3.552500248,36.68466949,
3.554166555,37.24256134,
3.55583334,36.31379318,
3.557499886,37.22116852,
3.55916667,36.3150444,
3.560833454,37.18716431,
3.5625,36.94470978,
3.564166784,36.76952744,
3.56583333,36.97125244,
3.567500114,36.59834671,
3.569166899,36.69907761,
3.570833445,36.11714554,
3.57249999,36.699646,
3.574166536,37.04536819,
3.575833321,37.14535904,
3.577500105,36.56603241,
3.579166651,36.65495682,
3.580833435,36.85556412,
3.582499981,36.48054886,
3.584166765,36.76843262,
3.585833549,36.32107544,
3.587500095,36.67533875,
3.58916688,36.4862175,
3.590833187,36.57571411,
3.592499971,36.89286804,
3.594166756,36.98369217,
3.595833302,36.70385361,
3.597500086,36.98662949,
3.599166632,36.3082962,
3.600833416,36.60853195,
3.6025002,36.99160385,
3.604166746,36.26643372,
3.60583353,35.65408707,
3.607499838,36.35425568,
3.609166622,36.7116127,
3.610833406,36.48070908,
3.612499952,37.00850677,
3.614166737,36.51063156,
3.615833282,36.8478241,
3.617500067,36.47573853,
3.619166851,36.34802628,
3.620833397,36.50624084,
3.622500181,36.11985779,
3.624166727,36.51348495,
3.625833273,36.31269836,
3.627500057,36.28237152,
3.629166603,36.28503799,
3.630833387,36.44770432,
3.632499933,36.19671249,
3.634166718,36.24755096,
3.635833502,36.49729538,
3.637500048,36.7373848,
3.639166832,36.5118866,
3.640833378,36.35811234,
3.642500162,36.93320465,
3.644166708,36.71233368,
3.645833254,36.75791931,
3.647500038,36.23830032,
3.649166584,36.81227493,
3.650833368,36.69998169,
3.652500153,36.51893997,
3.654166698,35.92617416,
3.655833483,36.70516968,
3.657500029,37.50340271,
3.659166813,37.05036545,
3.660833597,36.48543549,
3.662499905,36.24061203,
3.664166689,36.28913498,
3.665833235,36.82217407,
3.667500019,36.64164734,
3.669166803,36.77321625,
3.670833349,36.56763077,
3.672500134,36.59373093,
3.674166679,36.28144836,
3.675833464,36.26532745,
3.677500248,36.88408661,
3.679166555,36.37679672,
3.68083334,35.80419922,
3.682499886,36.83932877,
3.68416667,36.52973557,
3.685833454,36.81391144,
3.6875,36.9025116,
3.689166784,36.57641602,
3.69083333,36.28089523,
3.692500114,36.9728508,
3.694166899,36.2755394,
3.695833445,36.51789474,
3.69749999,36.71589661,
3.699166536,36.81988525,
3.700833321,37.28443527,
3.702500105,35.81739807,
3.704166651,36.67891693,
3.705833435,36.78781509,
3.707499981,36.93255997,
3.709166765,36.16941452,
3.710833549,36.55326843,
3.712500095,37.00662613,
3.71416688,36.87518311,
3.715833187,36.33840179,
3.717499971,36.8885994,
3.719166756,36.18678284,
3.720833302,36.32999802,
3.722500086,36.76136398,
3.724166632,36.26589203,
3.725833416,36.57158279,
3.7275002,36.88507843,
3.729166746,36.79607773,
3.73083353,37.03461456,
3.732499838,36.44818115,
3.734166622,36.57546234,
3.735833406,36.46004105,
3.737499952,36.48862076,
3.739166737,36.6987648,
3.740833282,36.28606415,
3.742500067,36.77923203,
3.744166851,36.60885239,
3.745833397,36.62128067,
3.747500181,36.79649734,
3.749166727,36.24275589,
3.750833273,36.53643036,
3.752500057,36.53833771,
3.754166603,37.07670975,
3.755833387,36.72156143,
3.757499933,36.11367035,
3.759166718,36.44070435,
3.760833502,36.64056396,
3.762500048,36.57129288,
3.764166832,36.79643631,
3.765833378,36.89511108,
3.767500162,36.62432861,
3.769166708,36.59123993,
3.770833254,36.99436569,
3.772500038,36.18998337,
3.774166584,36.98125076,
3.775833368,35.82553482,
3.777500153,36.82009506,
3.779166698,36.38703156,
3.780833483,36.08586121,
3.782500029,36.54331207,
3.784166813,36.46080399,
3.785833597,36.59080505,
3.787499905,36.33150101,
3.789166689,36.56705856,
3.790833235,36.48006821,
3.792500019,36.56745911,
3.794166803,35.93870163,
3.795833349,35.91589355,
3.797500134,36.54593658,
3.799166679,36.73386002,
3.800833464,36.50085068,
3.802500248,36.57794571,
3.804166555,36.87298203,
3.80583334,37.34019852,
3.807499886,36.81502914,
3.80916667,36.78118896,
3.810833454,36.59248352,
3.8125,36.80545425,
3.814166784,35.989254,
3.81583333,36.15016556,
3.817500114,36.30567932,
3.819166899,36.5137291,
3.820833445,36.59965134,
3.82249999,37.00322342,
3.824166536,35.69734955,
3.825833321,36.34782028,
3.827500105,36.43753433,
3.829166651,36.84999466,
3.830833435,36.21232224,
3.832499981,35.99039078,
3.834166765,36.5014801,
3.835833549,36.36104202,
3.837500095,36.66641235,
3.83916688,36.23329544,
3.840833187,36.82143402,
3.842499971,36.70301437,
3.844166756,36.78420258,
3.845833302,36.58829117,
3.847500086,37.37420654,
3.849166632,36.42023087,
3.850833416,36.43027496,
3.8525002,36.93188477,
3.854166746,36.88254547,
3.85583353,36.69633102,
3.857499838,36.69827652,
3.859166622,36.9903183,
3.860833406,36.45327377,
3.862499952,36.22678375,
3.864166737,36.77555466,
3.865833282,36.43353271,
3.867500067,36.73737335,
3.869166851,36.11997604,
3.870833397,36.84067535,
3.872500181,36.98826599,
3.874166727,36.49713516,
3.875833273,36.45309067,
3.877500057,36.63295364,
3.879166603,36.27440643,
3.880833387,35.53133011,
3.882499933,36.08050919,
3.884166718,36.60126877,
3.885833502,36.69381332,
3.887500048,36.0639267,
3.889166832,36.71814728,
3.890833378,36.70209122,
3.892500162,36.42622375,
3.894166708,36.71965027,
3.895833254,37.01542282,
3.897500038,36.51083374,
3.899166584,36.17703629,
3.900833368,36.76934052,
3.902500153,36.25755692,
3.904166698,35.7814064,
3.905833483,36.4430275,
3.907500029,36.41291428,
3.909166813,36.01448822,
3.910833597,36.20991898,
3.912499905,36.28053284,
3.914166689,36.64598846,
3.915833235,36.80397797,
3.917500019,36.69421005,
3.919166803,36.10692596,
3.920833349,36.46837616,
3.922500134,36.27448273,
3.924166679,36.15612793,
3.925833464,36.61769104,
3.927500248,36.83478928,
3.929166555,36.59502411,
3.93083334,36.3550415,
3.932499886,36.69359207,
3.93416667,36.54843521,
3.935833454,36.71286392,
3.9375,35.94569397,
3.939166784,36.0382309,
3.94083333,36.91793823,
3.942500114,36.51476669,
3.944166899,36.29915619,
3.945833445,36.00146103,
3.94749999,36.18267441,
3.949166536,36.59295654,
3.950833321,36.24201584,
3.952500105,36.07333374,
3.954166651,36.64120102,
3.955833435,36.77497101,
3.957499981,36.2550354,
3.959166765,36.11085892,
3.960833549,36.61120987,
3.962500095,36.78142929,
3.96416688,36.51928329,
3.965833187,36.01900101,
3.967499971,36.51220322,
3.969166756,36.39754486,
3.970833302,36.40074158,
3.972500086,36.12107468,
3.974166632,36.46604156,
3.975833416,36.48480225,
3.9775002,36.80807877,
3.979166746,36.44762802,
3.98083353,36.71173096,
3.982499838,36.05524826,
3.984166622,36.84272385,
3.985833406,36.37696838,
3.987499952,35.90156937,
3.989166737,36.15384674,
3.990833282,36.68184662,
3.992500067,36.24199295,
3.994166851,36.49703598,
3.995833397,37.08243561,
3.997500181,36.5596199,
3.999166727,36.62739182,
4.000833511,36.20472336,
4.002500057,36.24743652,
4.004166603,36.20727539,
4.005833626,36.80201721,
4.007500172,36.29885864,
4.009166718,36.07209778,
4.010833263,36.39835358,
4.012499809,36.40749741,
4.014166832,36.93502808,
4.015833378,36.51518631,
4.017499924,36.3853302,
4.019166946,36.68716431,
4.020833492,36.51931,
4.022500038,36.69172287,
4.024166584,36.3810997,
4.025833607,36.35578537,
4.027500153,36.38301468,
4.029166698,36.55932236,
4.030833244,36.52656174,
4.03249979,36.26481628,
4.034166813,36.86509323,
4.035833359,36.29909134,
4.037499905,36.51007843,
4.039166927,36.64419174,
4.040833473,36.65893173,
4.042500019,36.59669113,
4.044167042,36.13873672,
4.045833111,36.02726364,
4.047500134,36.37741852,
4.049166679,36.20857239,
4.050833225,36.18945694,
4.052500248,36.73770905,
4.054166794,36.46622467,
4.05583334,36.5165863,
4.057499886,36.72916031,
4.059166908,36.9107933,
4.060833454,36.33612442,
4.0625,36.20827103,
4.064166546,36.54784012,
4.065833092,36.63031769,
4.067500114,36.63349533,
4.06916666,36.67876053,
4.070833206,36.27386093,
4.072500229,36.39424515,
4.074166775,36.74559402,
4.075833321,37.04510498,
4.077500343,36.14297867,
4.079166889,36.62442017,
4.080833435,35.62520218,
4.082499981,35.94124985,
4.084166527,35.94688416,
4.085833549,35.84354019,
4.087500095,36.66268921,
4.089166641,35.62548065,
4.090833187,36.61016464,
4.09250021,36.52671432,
4.094166756,36.97920609,
4.095833302,36.44318008,
4.097500324,36.55341721,
4.099166393,36.76651382,
4.100833416,36.97896957,
4.102499962,36.75421143,
4.104166508,35.99514771,
4.10583353,36.69355011,
4.107500076,35.9343605,
4.109166622,36.05332184,
4.110833645,36.41947937,
4.112500191,36.52494431,
4.114166737,36.45845413,
4.115833282,35.9331131,
4.117499828,36.07850266,
4.119166851,36.55377197,
4.120833397,36.24811172,
4.122499943,35.805336,
4.124166489,36.39751053,
4.125833511,36.73809433,
4.127500057,36.1060791,
4.129166603,36.49234772,
4.130833626,36.47218704,
4.132500172,37.15379333,
4.134166718,36.00345993,
4.135833263,36.84302521,
4.137499809,36.16515732,
4.139166832,36.30489731,
4.140833378,36.16343689,
4.142499924,35.9538765,
4.144166946,36.45662689,
4.145833492,36.51877975,
4.147500038,36.80747986,
4.149166584,36.31847763,
4.150833607,36.06530762,
4.152500153,36.13032913,
4.154166698,36.51503372,
4.155833244,36.13209534,
4.15749979,36.36081696,
4.159166813,36.31137848,
4.160833359,36.14218521,
4.162499905,36.14054108,
4.164166927,36.28239441,
4.165833473,36.50719452,
4.167500019,36.46341324,
4.169167042,36.33534241,
4.170833111,36.34257507,
4.172500134,36.82853317,
4.174166679,36.19313812,
4.175833225,37.08470154,
4.177500248,36.76821518,
4.179166794,36.41945267,
4.18083334,36.48206711,
4.182499886,36.23111343,
4.184166908,35.99419785,
4.185833454,36.4056015,
4.1875,36.12647629,
4.189166546,36.57781601,
4.190833092,35.49174881,
4.192500114,35.87766647,
4.19416666,36.50048065,
4.195833206,36.30208588,
4.197500229,36.41927719,
4.199166775,37.12321854,
4.200833321,36.11517715,
4.202500343,36.23023224,
4.204166889,36.42560959,
4.205833435,36.73406601,
4.207499981,36.15182877,
4.209166527,36.27819824,
4.210833549,36.25342178,
4.212500095,36.27099228,
4.214166641,36.83640289,
4.215833187,36.62919617,
4.21750021,36.35380936,
4.219166756,36.3848114,
4.220833302,35.91294861,
4.222500324,35.63936615,
4.224166393,35.8688736,
4.225833416,36.0598793,
4.227499962,36.11030579,
4.229166508,36.34794235,
4.23083353,35.65857315,
4.232500076,36.65624619,
4.234166622,36.13156509,
4.235833645,36.4279213,
4.237500191,36.40101242,
4.239166737,36.5982399,
4.240833282,36.25623322,
4.242499828,36.29378891,
4.244166851,36.29444504,
4.245833397,37.15286255,
4.247499943,36.08135223,
4.249166489,35.90871048,
4.250833511,36.67987442,
4.252500057,36.29948425,
4.254166603,36.23963547,
4.255833626,36.32300568,
4.257500172,36.47034836,
4.259166718,36.72465134,
4.260833263,36.13475037,
4.262499809,36.75072098,
4.264166832,36.24444199,
4.265833378,36.24242401,
4.267500401,36.91010666,
4.26916647,36.26653671,
4.270833492,36.92671967,
4.272500038,36.6216507,
4.274167061,35.8042717,
4.275833607,36.29938889,
4.277499676,35.8071022,
4.279166698,36.48810959,
4.280833244,36.90756226,
4.282500267,36.19459152,
4.284166813,36.03443146,
4.285833359,36.84559631,
4.287499905,36.09880829,
4.289166927,36.07669067,
4.290833473,36.39080048,
4.292500496,36.140522,
4.294166565,35.81265259,
4.295833111,35.80981445,
4.297500134,36.09629059,
4.299166679,36.48555756,
4.300833702,36.46773911,
4.302499771,36.05153275,
4.304166794,36.21012497,
4.30583334,36.46354294,
4.307500362,36.72564316,
4.309166908,36.15185165,
4.310833454,36.21306229,
4.3125,36.10208893,
4.314166546,36.76414871,
4.315833569,36.44026184,
4.317500114,36.27561188,
4.31916666,36.12495804,
4.320833206,36.6175499,
4.322500229,36.97961807,
4.324166775,35.96424866,
4.325833797,36.022995,
4.327499866,36.43612671,
4.329166889,36.12318802,
4.330833435,36.07381058,
4.332499981,36.3698082,
4.334167004,36.13063812,
4.335833073,35.92560577,
4.337500095,36.23043442,
4.339166641,36.03683472,
4.340833664,36.31430435,
4.34250021,36.43600082,
4.344166756,36.54894257,
4.345833302,36.66640854,
4.347500324,35.75301361,
4.34916687,36.21289444,
4.350833416,36.09585571,
4.352499962,36.70098114,
4.354166508,36.22413254,
4.35583353,36.03634644,
4.357500076,35.99432373,
4.359167099,35.93162155,
4.360833168,36.80409241,
4.362500191,36.45956039,
4.364166737,36.6685257,
4.365833759,36.2221489,
4.367500305,36.25626755,
4.369166374,35.79633713,
4.370833397,36.31063843,
4.372499943,36.38614655,
4.374166965,36.07774734,
4.375833511,35.77613068,
4.377500057,36.10319901,
4.379166603,36.54813385,
4.380833626,36.02370071,
4.382500172,36.86820602,
4.384167194,36.47069931,
4.385833263,36.06705856,
4.387499809,36.56930542,
4.389166832,36.10862732,
4.390833378,36.00140762,
4.392500401,36.5502243,
4.39416647,35.83216858,
4.395833492,36.37905502,
4.397500038,36.70338058,
4.399167061,35.83181,
4.400833607,37.1857338,
4.402499676,36.71671295,
4.404166698,36.64206314,
4.405833244,36.02580261,
4.407500267,36.43590927,
4.409166813,36.17254639,
4.410833359,36.32177353,
4.412499905,36.56690216,
4.414166927,35.8065834,
4.415833473,35.73068237,
4.417500496,35.9745369,
4.419166565,36.2723999,
4.420833111,36.3728714,
4.422500134,36.33317184,
4.424166679,36.70000076,
4.425833702,36.23627853,
4.427499771,36.54058456,
4.429166794,35.9522438,
4.43083334,36.34726715,
4.432500362,36.75377655,
4.434166908,35.63231277,
4.435833454,36.80683136,
4.4375,36.45467377,
4.439166546,36.85398102,
4.440833569,36.38393402,
4.442500114,35.7863121,
4.44416666,36.26705551,
4.445833206,36.67240524,
4.447500229,36.46157455,
4.449166775,36.55432892,
4.450833797,35.99907303,
4.452499866,36.23655701,
4.454166889,36.53061295,
4.455833435,36.34239578,
4.457499981,36.12979507,
4.459167004,36.41152954,
4.460833073,35.94527054,
4.462500095,35.81603241,
4.464166641,36.41400146,
4.465833664,37.00660324,
4.46750021,36.33816528,
4.469166756,36.06900787,
4.470833302,36.54843521,
4.472500324,35.86215973,
4.47416687,36.21760941,
4.475833416,35.92624664,
4.477499962,36.51073074,
4.479166508,35.97402191,
4.48083353,36.57918167,
4.482500076,35.639328,
4.484167099,36.85542297,
4.485833168,35.66352081,
4.487500191,36.07937241,
4.489166737,35.90995026,
4.490833759,36.68061829,
4.492500305,36.42243195,
4.494166374,35.53317261,
4.495833397,36.21103287,
4.497499943,36.31163788,
4.499166965,35.93001175,
4.500833511,35.85015869,
4.502500057,35.84358978,
4.504166603,36.41350555,
4.505833626,36.47546005,
4.507500172,36.48413849,
4.509167194,36.06605911,
4.510833263,36.11803055,
4.512499809,35.85652542,
4.514166832,36.47562408,
4.515833378,35.84755325,
4.517500401,36.22454453,
4.51916647,36.20640564,
4.520833492,36.40018082,
4.522500038,36.54125214,
4.524167061,36.19294357,
4.525833607,36.23252487,
4.527499676,36.46381378,
4.529166698,36.27725601,
4.530833244,36.74440002,
4.532500267,35.77462769,
4.534166813,36.9011879,
4.535833359,35.75058746,
4.537499905,36.42808151,
4.539166927,36.38871384,
4.540833473,36.55753708,
4.542500496,35.82655334,
4.544166565,35.79066086,
4.545833111,36.25785446,
4.547500134,35.91020966,
4.549166679,36.12898636,
4.550833702,35.70849609,
4.552499771,37.16083527,
4.554166794,36.81181717,
4.55583334,36.18185043,
4.557500362,36.13534164,
4.559166908,36.51662445,
4.560833454,36.31835556,
4.5625,36.30164337,
4.564166546,36.23125458,
4.565833569,35.93606186,
4.567500114,36.34772491,
4.56916666,36.48558426,
4.570833206,36.31560898,
4.572500229,35.7357254,
4.574166775,36.45426941,
4.575833797,36.5621376,
4.577499866,36.44248581,
4.579166889,36.37580109,
4.580833435,36.05512619,
4.582499981,35.87746048,
4.584167004,36.65257645,
4.585833073,36.90049744,
4.587500095,36.12840271,
4.589166641,36.10735703,
4.590833664,36.27939987,
4.59250021,36.03781891,
4.594166756,36.3612175,
4.595833302,36.54281235,
4.597500324,36.26057816,
4.59916687,35.68201065,
4.600833416,36.08958054,
4.602499962,36.26654053,
4.604166508,36.1895256,
4.60583353,35.92660522,
4.607500076,36.26355362,
4.609167099,36.80201721,
4.610833168,36.21839142,
4.612500191,36.37369537,
4.614166737,36.51782227,
4.615833759,36.44898987,
4.617500305,36.3061409,
4.619166374,36.37717056,
4.620833397,35.89234543,
4.622499943,36.15375137,
4.624166965,36.14521027,
4.625833511,36.02151871,
4.627500057,36.29592133,
4.629166603,36.33536911,
4.630833626,36.12617874,
4.632500172,36.17880249,
4.634167194,36.10642624,
4.635833263,35.7979393,
4.637499809,36.03652191,
4.639166832,36.23857117,
4.640833378,36.19258118,
4.642500401,36.19149399,
4.64416647,36.07941818,
4.645833492,35.90616608,
4.647500038,36.4385376,
4.649167061,36.20257568,
4.650833607,36.60054779,
4.652499676,35.89354706,
4.654166698,36.43575668,
4.655833244,35.6849823,
4.657500267,35.87559891,
4.659166813,36.4638176,
4.660833359,36.53760147,
4.662499905,36.22164536,
4.664166927,36.20497131,
4.665833473,35.95038223,
4.667500496,35.94718933,
4.669166565,36.15705872,
4.670833111,35.6744957,
4.672500134,36.02824783,
4.674166679,35.55220032,
4.675833702,36.08132935,
4.677499771,36.48078918,
4.679166794,36.31607056,
4.68083334,36.66801071,
4.682500362,36.06352615,
4.684166908,36.48603821,
4.685833454,36.37661743,
4.6875,36.07955551,
4.689166546,36.29211044,
4.690833569,35.55600739,
4.692500114,36.46350098,
4.69416666,36.27347183,
4.695833206,36.09507751,
4.697500229,35.96396637,
4.699166775,36.0513916,
4.700833797,36.22008514,
4.702499866,36.66004562,
4.704166889,36.13008499,
4.705833435,36.47496414,
4.707499981,36.1086998,
4.709167004,36.3808403,
4.710833073,36.69234085,
4.712500095,36.7299881,
4.714166641,36.26407623,
4.715833664,36.26879883,
4.71750021,36.4970932,
4.719166756,36.27925873,
4.720833302,36.51676941,
4.722500324,35.83376694,
4.72416687,35.89220047,
4.725833416,36.01584625,
4.727499962,36.5225029,
4.729166508,36.10429764,
4.73083353,36.56133652,
4.732500076,36.30504608,
4.734167099,36.17402649,
4.735833168,35.78107834,
4.737500191,36.58493423,
4.739166737,36.42212296,
4.740833759,36.61968613,
4.742500305,36.59298706,
4.744166374,36.44272995,
4.745833397,35.67553329,
4.747499943,36.9725914,
4.749166965,36.3343277,
4.750833511,36.32491302,
4.752500057,35.94673538,
4.754166603,36.34635544,
4.755833626,35.33535385,
4.757500172,35.97554398,
4.759167194,35.9235611,
4.760833263,35.74351883,
4.762499809,36.37257385,
4.764166832,36.19207382,
4.765833378,36.53922272,
4.767500401,36.50786209,
4.76916647,36.09040451,
4.770833492,35.72837067,
4.772500038,35.98064041,
4.774167061,36.31615829,
4.775833607,36.24137878,
4.777499676,36.77758026,
4.779166698,36.15209961,
4.780833244,35.91534424,
4.782500267,36.36490631,
4.784166813,36.03667831,
4.785833359,36.37255096,
4.787499905,36.05226135,
4.789166927,35.53611374,
4.790833473,36.38489914,
4.792500496,36.08374786,
4.794166565,35.95865631,
4.795833111,36.47325134,
4.797500134,36.54974365,
4.799166679,35.87164688,
4.800833702,36.80215073,
4.802499771,36.37598038,
4.804166794,36.22200012,
4.80583334,36.37503433,
4.807500362,35.9523468,
4.809166908,36.21072769,
4.810833454,35.87214661,
4.8125,36.06450653,
4.814166546,36.27077103,
4.815833569,35.7592392,
4.817500114,36.44298935,
4.81916666,35.75745773,
4.820833206,35.66898346,
4.822500229,35.82450104,
4.824166775,35.71876907,
4.825833797,36.4609108,
4.827499866,35.74188614,
4.829166889,35.74888611,
4.830833435,36.45536423,
4.832499981,36.59144592,
4.834167004,36.47595215,
4.835833073,36.47571182,
4.837500095,36.39843369,
4.839166641,36.49014664,
4.840833664,36.14165115,
4.84250021,36.56167221,
4.844166756,36.65423584,
4.845833302,36.79807663,
4.847500324,36.46359634,
4.84916687,35.8224411,
4.850833416,35.92500687,
4.852499962,36.38048172,
4.854166508,36.39890289,
4.85583353,36.0667305,
4.857500076,35.94451904,
4.859167099,36.56315613,
4.860833168,36.17459869,
4.862500191,36.41783142,
4.864166737,36.2207489,
4.865833759,36.17507553,
4.867500305,35.79859161,
4.869166374,36.33884048,
4.870833397,36.20254898,
4.872499943,36.2926445,
4.874166965,36.10335541,
4.875833511,35.90652084,
4.877500057,36.37086105,
4.879166603,36.67063141,
4.880833626,36.44388962,
4.882500172,36.26396561,
4.884167194,36.27634048,
4.885833263,36.45320511,
4.887499809,36.02665329,
4.889166832,35.59647751,
4.890833378,36.13254929,
4.892500401,36.29221725,
4.89416647,35.69623184,
4.895833492,36.14092255,
4.897500038,36.09591675,
4.899167061,36.50601196,
4.900833607,35.97029877,
4.902499676,35.99398804,
4.904166698,36.14961624,
4.905833244,35.62555313,
4.907500267,35.52705002,
4.909166813,36.28684998,
4.910833359,36.42524338,
4.912499905,35.84984207,
4.914166927,36.29001999,
4.915833473,35.97109604,
4.917500496,35.82755661,
4.919166565,35.69850159,
4.920833111,35.88253021,
4.922500134,36.02545166,
4.924166679,35.79856873,
4.925833702,36.10636902,
4.927499771,35.67560577,
4.929166794,36.7501564,
4.93083334,36.0568161,
4.932500362,35.88486099,
4.934166908,35.88378525,
4.935833454,35.97185898,
4.9375,36.49647903,
4.939166546,36.22454834,
4.940833569,36.07871246,
4.942500114,36.63103104,
4.94416666,36.74780655,
4.945833206,36.4237442,
4.947500229,36.52174759,
4.949166775,36.60962296,
4.950833797,36.24005508,
4.952499866,36.10940933,
4.954166889,35.94208145,
4.955833435,35.66204453,
4.957499981,35.98801804,
4.959167004,35.68260574,
4.960833073,36.36256409,
4.962500095,36.36990356,
4.964166641,35.80305481,
4.965833664,35.8859024,
4.96750021,35.83094406,
4.969166756,35.83259201,
4.970833302,35.83995819,
4.972500324,36.67072296,
4.97416687,36.10559082,
4.975833416,35.93321991,
4.977499962,35.81062698,
4.979166508,35.62630081,
4.98083353,36.10656357,
4.982500076,35.74419022,
4.984167099,35.86221313,
4.985833168,35.42713928,
4.987500191,36.66631317,
4.989166737,36.48263168,
4.990833759,36.62788773,
4.992500305,36.0399971,
4.994166374,36.11710739,
4.995833397,36.39356232,
4.997499943,36.55849838,
4.999166965,36.5021019,
5.000833511,36.58621979,
5.002500057,36.5737381,
5.004166603,36.28912354,
5.005833626,36.42420578,
5.007500172,35.66349792,
5.009167194,35.8602829,
5.010833263,36.1231842,
5.012499809,35.95135498,
5.014166832,36.24122238,
5.015833378,35.81913376,
5.017500401,36.1746788,
5.01916647,36.06316376,
5.020833492,36.23657227,
5.022500038,35.72951889,
5.024167061,36.6633606,
5.025833607,35.62596893,
5.027499676,36.37528229,
5.029166698,36.44071198,
5.030833244,36.17602921,
5.032500267,35.8437233,
5.034166813,36.7387085,
5.035833359,36.29001236,
5.037499905,36.01015472,
5.039166927,36.14822769,
5.040833473,36.2430954,
5.042500496,35.76382828,
5.044166565,35.79190063,
5.045833111,35.70428467,
5.047500134,36.26385498,
5.049166679,36.12805557,
5.050833702,36.12187576,
5.052499771,35.97504044,
5.054166794,35.77438354,
5.05583334,36.84247208,
5.057500362,35.83844376,
5.059166908,36.2250824,
5.060833454,36.65032196,
5.0625,36.22609711,
5.064166546,36.31024933,
5.065833569,35.97910309,
5.067500114,36.29015732,
5.06916666,36.05016708,
5.070833206,36.67775726,
5.072500229,36.19198608,
5.074166775,36.67245102,
5.075833797,36.34461594,
5.077499866,36.08316422,
5.079166889,36.52981186,
5.080833435,35.79491043,
5.082499981,35.89902496,
5.084167004,36.10555649,
5.085833073,35.85120392,
5.087500095,35.88357544,
5.089166641,35.78579712,
5.090833664,36.46566391,
5.09250021,35.84947586,
5.094166756,35.79418182,
5.095833302,36.37639236,
5.097500324,35.69000626,
5.09916687,36.35712051,
5.100833416,35.4554863,
5.102499962,36.59313583,
5.104166508,35.89969635,
5.10583353,36.09071732,
5.107500076,36.08377075,
5.109167099,36.34620667,
5.110833168,36.25045013,
5.112500191,35.87112427,
5.114166737,35.76180649,
5.115833759,35.91262817,
5.117500305,36.05459213,
5.119166374,35.75826263,
5.120833397,36.12144852,
5.122499943,36.17563629,
5.124166965,35.91051483,
5.125833511,35.98656082,
5.127500057,35.63478088,
5.129166603,35.88043213,
5.130833626,35.97871399,
5.132500172,35.91046524,
5.134167194,35.84601212,
5.135833263,35.5956955,
5.137499809,35.92828369,
5.139166832,35.90068054,
5.140833378,36.00028229,
5.142500401,35.88534927,
5.14416647,35.86513901,
5.145833492,36.33370209,
5.147500038,35.61059952,
5.149167061,36.0911026,
5.150833607,36.25576401,
5.152499676,36.53460693,
5.154166698,36.28825378,
5.155833244,36.42024994,
5.157500267,36.31774521,
5.159166813,36.84440613,
5.160833359,36.34803391,
5.162499905,35.96593094,
5.164166927,36.1319809,
5.165833473,36.08919525,
5.167500496,36.30727005,
5.169166565,35.98822021,
5.170833111,34.98738098,
5.172500134,36.16798401,
5.174166679,36.11781311,
5.175833702,36.5903244,
5.177499771,36.06761169,
5.179166794,36.35778046,
5.18083334,36.25345612,
5.182500362,36.45842361,
5.184166908,35.847435,
5.185833454,35.78449249,
5.1875,36.78247452,
5.189166546,36.1493988,
5.190833569,36.41613388,
5.192500114,35.93009949,
5.19416666,36.7087059,
5.195833206,36.22007751,
5.197500229,35.71743774,
5.199166775,36.63679886,
5.200833797,35.83534622,
5.202499866,36.33572769,
5.204166889,35.93894196,
5.205833435,35.96062851,
5.207499981,36.52883148,
5.209167004,36.01376343,
5.210833073,35.77074432,
5.212500095,35.92562103,
5.214166641,35.9276886,
5.215833664,36.7273941,
5.21750021,36.23536682,
5.219166756,36.04865646,
5.220833302,36.22457504,
5.222500324,36.31436539,
5.22416687,36.16355133,
5.225833416,36.08560181,
5.227499962,35.7955513,
5.229166508,35.98229599,
5.23083353,35.85021973,
5.232500076,36.43770218,
5.234167099,36.23950195,
5.235833168,35.62850189,
5.237500191,35.49133682,
5.239166737,35.74833679,
5.240833759,35.82492447,
5.242500305,36.2041626,
5.244166374,35.53210831,
5.245833397,36.10752487,
5.247499943,35.7274971,
5.249166965,35.66790771,
5.250833511,36.27636719,
5.252500057,36.16227722,
5.254166603,36.2423439,
5.255833626,36.12193298,
5.257500172,36.18712234,
5.259167194,36.01927948,
5.260833263,36.29352951,
5.262499809,36.2615509,
5.264166832,35.80829239,
5.265833378,36.18470764,
5.267500401,36.36258316,
5.26916647,36.16941452,
5.270833492,36.2689743,
5.272500038,36.80495071,
5.274167061,36.21055222,
5.275833607,36.25251389,
5.277499676,36.00998688,
5.279166698,35.62258911,
5.280833244,36.04019165,
5.282500267,36.12397385,
5.284166813,36.32501602,
5.285833359,36.05070877,
5.287499905,36.37489319,
5.289166927,36.18930435,
5.290833473,35.82967377,
5.292500496,36.31465149,
5.294166565,36.10684967,
5.295833111,36.17356491,
5.297500134,35.91228867,
5.299166679,35.71809387,
5.300833702,35.87732697,
5.302499771,36.20537567,
5.304166794,36.67079544,
5.30583334,35.7386322,
5.307500362,36.49249268,
5.309166908,35.92063904,
5.310833454,36.2752533,
5.3125,36.34381104,
5.314166546,36.07590485,
5.315833569,36.17974472,
5.317500114,35.69253922,
5.31916666,35.90958405,
5.320833206,36.4240303,
5.322500229,36.13446426,
5.324166775,35.45837021,
5.325833797,36.6986618,
5.327499866,35.94438553,
5.329166889,35.67628479,
5.330833435,35.90258026,
5.332499981,36.36320877,
5.334167004,36.05770874,
5.335833073,36.83587646,
5.337500095,36.28559113,
5.339166641,36.61821365,
5.340833664,36.15309906,
5.34250021,36.23675919,
5.344166756,36.01203537,
5.345833302,35.57914734,
5.347500324,35.4950943,
5.34916687,36.6755867,
5.350833416,35.87102509,
5.352499962,36.14372635,
5.354166508,36.33115387,
5.35583353,35.94274902,
5.357500076,35.61260223,
5.359167099,36.65962601,
5.360833168,35.85793686,
5.362500191,35.70695496,
5.364166737,36.2862854,
5.365833759,35.62027359,
5.367500305,36.08639145,
5.369166374,36.32925797,
5.370833397,36.1277771,
5.372499943,35.55784988,
5.374166965,36.30127335,
5.375833511,35.95870209,
5.377500057,36.69940948,
5.379166603,35.80731583,
5.380833626,36.18055725,
5.382500172,36.27362442,
5.384167194,36.38689423,
5.385833263,36.4901123,
5.387499809,36.64285278,
5.389166832,35.98666382,
5.390833378,36.11030197,
5.392500401,35.60717392,
5.39416647,36.32114029,
5.395833492,36.16901398,
5.397500038,35.75146103,
5.399167061,36.08277893,
5.400833607,35.94524002,
5.402499676,36.22252655,
5.404166698,35.7906723,
5.405833244,36.40026474,
5.407500267,36.26474762,
5.409166813,36.09957886,
5.410833359,36.44674683,
5.412499905,36.02613449,
5.414166927,35.95347977,
5.415833473,36.23371506,
5.417500496,36.50466537,
5.419166565,36.09445953,
5.420833111,35.91448593,
5.422500134,36.40080261,
5.424166679,36.3765564,
5.425833702,36.09817886,
5.427499771,36.68452835,
5.429166794,36.29840851,
5.43083334,35.86006165,
5.432500362,35.72853088,
5.434166908,36.16555786,
5.435833454,35.97383881,
5.4375,36.16127777,
5.439166546,35.63439178,
5.440833569,36.3148613,
5.442500114,36.26272583,
5.44416666,36.59719467,
5.445833206,36.23252869,
5.447500229,35.98454666,
5.449166775,35.73207855,
5.450833797,35.81782913,
5.452499866,36.29074478,
5.454166889,35.73082733,
5.455833435,36.16480255,
5.457499981,36.07906723,
5.459167004,36.54143143,
5.460833073,35.87604523,
5.462500095,35.54706955,
5.464166641,36.23370743,
5.465833664,36.18479156,
5.46750021,36.03912354,
5.469166756,35.86527252,
5.470833302,36.00246811,
5.472500324,35.85519028,
5.47416687,35.93987274,
5.475833416,35.61019897,
5.477499962,36.12938309,
5.479166508,36.11568451,
5.48083353,36.31673431,
5.482500076,36.34319687,
5.484167099,35.87931061,
5.485833168,35.9213028,
5.487500191,36.1861496,
5.489166737,36.30424118,
5.490833759,36.44955826,
5.492500305,36.50035858,
5.494166374,35.6864357,
5.495833397,35.99579239,
5.497499943,35.99978638,
5.499166965,35.93944931,
5.500833511,35.90939331,
5.502500057,36.15697479,
5.504166603,36.46540833,
5.505833626,36.34715271,
5.507500172,35.86663818,
5.509167194,36.34973907,
5.510833263,36.09339142,
5.512499809,35.90607452,
5.514166832,36.30323792,
5.515833378,36.54460907,
5.517500401,35.73759079,
5.51916647,35.67405701,
5.520833492,36.16241074,
5.522500038,36.00661469,
5.524167061,35.69590378,
5.525833607,35.77724838,
5.527499676,35.45417786,
5.529166698,35.80670166,
5.530833244,36.41066742,
5.532500267,36.05596542,
5.534166813,35.7142868,
5.535833359,35.50816727,
5.537499905,36.4167099,
5.539166927,35.70814896,
5.540833473,35.73860931,
5.542500496,36.11835861,
5.544166565,36.26137543,
5.545833111,36.32496262,
5.547500134,36.29946899,
5.549166679,36.20320892,
5.550833702,36.24783707,
5.552499771,36.27675247,
5.554166794,35.8624649,
5.55583334,35.90309906,
5.557500362,35.94734573,
5.559166908,35.75099182,
5.560833454,36.51940536,
5.5625,36.21666718,
5.564166546,35.48677826,
5.565833569,35.88117218,
5.567500114,35.91497803,
5.56916666,35.79964828,
5.570833206,35.71365356,
5.572500229,35.70603943,
5.574166775,35.6448288,
5.575833797,35.95423508,
5.577499866,35.78287506,
5.579166889,36.32432556,
5.580833435,36.24162674,
5.582499981,36.33420944,
5.584167004,35.75981522,
5.585833073,35.98706055,
5.587500095,36.44352341,
5.589166641,35.65529251,
5.590833664,35.82575607,
5.59250021,35.79011536,
5.594166756,36.28973389,
5.595833302,35.77503967,
5.597500324,35.56914902,
5.59916687,35.82957077,
5.600833416,35.90906143,
5.602499962,36.29524231,
5.604166508,35.74420547,
5.60583353,35.64800262,
5.607500076,36.07532501,
5.609167099,36.6677475,
5.610833168,35.92459869,
5.612500191,36.43035126,
5.614166737,35.67802811,
5.615833759,36.24065781,
5.617500305,35.61884689,
5.619166374,36.32792664,
5.620833397,36.14244843,
5.622499943,36.39967728,
5.624166965,35.79889679,
5.625833511,35.35434341,
5.627500057,36.00396729,
5.629166603,35.71957779,
5.630833626,35.66892624,
5.632500172,35.76329041,
5.634167194,35.32017899,
5.635833263,35.74343872,
5.637499809,36.53641129,
5.639166832,36.12018967,
5.640833378,35.58980179,
5.642500401,36.10824966,
5.64416647,36.33046722,
5.645833492,36.0829277,
5.647500038,36.41668701,
5.649167061,35.831707,
5.650833607,35.9815712,
5.652499676,35.70067978,
5.654166698,35.75140381,
5.655833244,36.35573578,
5.657500267,36.3967247,
5.659166813,36.26857758,
5.660833359,36.03540421,
5.662499905,35.68759918,
5.664166927,36.20006561,
5.665833473,36.36118698,
5.667500496,35.48010635,
5.669166565,35.98778534,
5.670833111,35.7216301,
5.672500134,36.35641098,
5.674166679,35.84342194,
5.675833702,35.74210358,
5.677499771,35.68684387,
5.679166794,36.37103653,
5.68083334,36.3745842,
5.682500362,35.81399536,
5.684166908,36.33571243,
5.685833454,35.77022552,
5.6875,36.56054306,
5.689166546,35.9291153,
5.690833569,36.20603561,
5.692500114,36.10292435,
5.69416666,35.91310501,
5.695833206,35.83966064,
5.697500229,36.476017,
5.699166775,36.33135223,
5.700833797,36.03469849,
5.702499866,36.31217957,
5.704166889,35.84894562,
5.705833435,36.10971069,
5.707499981,36.27397919,
5.709167004,35.84981537,
5.710833073,36.26311493,
5.712500095,35.70093536,
5.714166641,35.81925201,
5.715833664,36.53061676,
5.71750021,35.90540695,
5.719166756,36.27220917,
5.720833302,35.90135956,
5.722500324,35.77176666,
5.72416687,35.77096558,
5.725833416,36.04940796,
5.727499962,35.85136795,
5.729166508,35.91370392,
5.73083353,35.94726944,
5.732500076,35.71888351,
5.734167099,36.04125595,
5.735833168,35.81098938,
5.737500191,35.58086014,
5.739166737,36.00145721,
5.740833759,36.088974,
5.742500305,35.76861191,
5.744166374,36.55651855,
5.745833397,35.15456772,
5.747499943,36.29851913,
5.749166965,35.80425644,
5.750833511,35.89065933,
5.752500057,35.89474869,
5.754166603,36.3669548,
5.755833626,35.59558487,
5.757500172,35.11122513,
5.759167194,35.88666916,
5.760833263,35.83308029,
5.762499809,35.68421936,
5.764166832,36.01691055,
5.765833378,36.28383636,
5.767500401,35.84761429,
5.76916647,35.92653656,
5.770833492,36.08235168,
5.772500038,35.66315079,
5.774167061,36.63862991,
5.775833607,36.11872482,
5.777499676,36.21780777,
5.779166698,36.1321106,
5.780833244,35.903965,
5.782500267,36.0449028,
5.784166813,35.64196777,
5.785833359,36.0020256,
5.787499905,36.32650375,
5.789166927,35.89212418,
5.790833473,35.72367096,
5.792500496,35.78455353,
5.794166565,36.58755875,
5.795833111,35.8869133,
5.797500134,36.36491776,
5.799166679,36.10519409,
5.800833702,36.32950211,
5.802499771,35.92753983,
5.804166794,35.98274994,
5.80583334,35.51128006,
5.807500362,35.6114502,
5.809166908,36.19404984,
5.810833454,35.66141129,
5.8125,36.11284256,
5.814166546,36.22536087,
5.815833569,36.15736008,
5.817500114,35.78958511,
5.81916666,36.09366608,
5.820833206,35.86972427,
5.822500229,35.83145905,
5.824166775,35.75489426,
5.825833797,36.47841644,
5.827499866,35.89548874,
5.829166889,35.92494583,
5.830833435,35.92702103,
5.832499981,36.21469116,
5.834167004,35.81925201,
5.835833073,36.5390892,
5.837500095,35.95401001,
5.839166641,36.00748062,
5.840833664,36.19288635,
5.84250021,36.35201645,
5.844166756,36.13099289,
5.845833302,36.23536301,
5.847500324,36.47660828,
5.84916687,35.84909058,
5.850833416,35.75230026,
5.852499962,36.32488632,
5.854166508,36.1056633,
5.85583353,36.16928101,
5.857500076,35.84695435,
5.859167099,35.90397263,
5.860833168,36.14162445,
5.862500191,36.13197327,
5.864166737,36.41004181,
5.865833759,36.13371658,
5.867500305,35.56032562,
5.869166374,36.34411621,
5.870833397,36.10445786,
5.872499943,35.86125183,
5.874166965,36.02343369,
5.875833511,35.63707352,
5.877500057,35.5353241,
5.879166603,36.05825043,
5.880833626,35.63981628,
5.882500172,36.05996704,
5.884167194,36.26120758,
5.885833263,36.32661057,
5.887499809,35.59062576,
5.889166832,36.14671707,
5.890833378,36.20959091,
5.892500401,35.65810776,
5.89416647,36.52490234,
5.895833492,36.11161423,
5.897500038,35.78118515,
5.899167061,35.88195038,
5.900833607,36.05247116,
5.902499676,35.50419998,
5.904166698,36.35651779,
5.905833244,36.63814163,
5.907500267,36.12701416,
5.909166813,35.98206711,
5.910833359,36.35539627,
5.912499905,35.65287781,
5.914166927,35.6003685,
5.915833473,36.26805115,
5.917500496,35.87107468,
5.919166565,36.38272095,
5.920833111,36.12642288,
5.922500134,35.80697632,
5.924166679,35.69263458,
5.925833702,35.70658112,
5.927499771,35.46931458,
5.929166794,36.0633049,
5.93083334,35.46074677,
5.932500362,35.76464462,
5.934166908,36.12894058,
5.935833454,35.73562241,
5.9375,36.2331543,
5.939166546,35.73468018,
5.940833569,36.29032135,
5.942500114,36.06798935,
5.94416666,36.1350441,
5.945833206,35.73070526,
5.947500229,35.65538788,
5.949166775,36.14172363,
5.950833797,35.51644897,
5.952499866,35.94293594,
5.954166889,36.05087662,
5.955833435,36.07798004,
5.957499981,36.51086044,
5.959167004,35.2505188,
5.960833073,35.94657898,
5.962500095,35.68149185,
5.964166641,35.96696091,
5.965833664,36.05300903,
5.96750021,35.84660339,
5.969166756,35.72852707,
5.970833302,35.84481049,
5.972500324,35.76659012,
5.97416687,35.76778412,
5.975833416,35.72850418,
5.977499962,36.02033234,
5.979166508,35.74571991,
5.98083353,35.97877121,
5.982500076,35.88526154,
5.984167099,35.73376846,
5.985833168,36.06777191,
5.987500191,35.71261978,
5.989166737,35.8321228,
5.990833759,35.78742981,
5.992500305,35.88209152,
5.994166374,36.56558609,
5.995833397,36.13946152,
5.997499943,36.16814041,
5.999166965,35.73033905,
6.000833511,35.41498184,
6.002500057,36.17047501,
6.004166603,35.83724976,
6.005833626,36.10412216,
6.007500172,35.86411285,
6.009167194,35.75657272,
6.010833263,35.52166748,
6.012499809,36.61758423,
6.014166832,35.65760803,
6.015833378,35.99840927,
6.017500401,36.46853256,
6.01916647,36.05242538,
6.020833492,35.94046783,
6.022500038,36.12399292,
6.024167061,35.73729706,
6.025833607,35.60879898,
6.027499676,36.07985687,
6.029166698,36.16655731,
6.030833244,36.12194824,
6.032500267,35.77726364,
6.034166813,35.49822235,
6.035833359,36.33126068,
6.037499905,35.92322922,
6.039166927,35.52603149,
6.040833473,35.77207184,
6.042500496,35.71846008,
6.044166565,35.87253571,
6.045833111,35.970047,
6.047500134,35.95882416,
6.049166679,35.98856735,
6.050833702,35.71112442,
6.052499771,35.85892868,
6.054166794,36.17511749,
6.05583334,36.42926407,
6.057500362,36.40402603,
6.059166908,35.85416794,
6.060833454,35.84104919,
6.0625,36.02164459,
6.064166546,36.54567337,
6.065833569,35.98839569,
6.067500114,35.57759476,
6.06916666,36.39888,
6.070833206,36.4888649,
6.072500229,35.61249542,
6.074166775,36.43994904,
6.075833797,36.17734528,
6.077499866,35.89073181,
6.079166889,35.89801025,
6.080833435,35.4945488,
6.082499981,35.92092514,
6.084167004,35.9689064,

