1,,
Time (min),Intensity (a.u.),
0.0008333333535,116.798233,
0.002500000177,116.1246719,
0.004166666884,117.1071625,
0.005833333358,117.2486191,
0.007500000298,116.2907867,
0.009166667238,116.5038757,
0.01083333418,117.4206314,
0.01250000019,116.1424103,
0.01416666713,117.4580612,
0.01583333313,116.7268677,
0.01750000194,116.9498062,
0.01916666701,116.3012772,
0.02083333395,117.2904663,
0.02250000089,115.9212875,
0.02416666783,116.7183151,
0.02583333477,118.725174,
0.02749999985,116.4524841,
0.02916666679,117.2062683,
0.03083333373,117.4628448,
0.03250000253,116.6986237,
0.03416666761,117.4879074,
0.03583333641,118.1043167,
0.03750000149,116.758522,
0.03916667029,117.0507202,
0.04083333537,117.8465424,
0.04250000045,116.2582779,
0.04416666925,116.4957123,
0.04583333433,116.7188034,
0.04750000313,116.7046585,
0.04916666821,116.6330109,
0.05083333328,116.4475098,
0.05250000209,117.1520462,
0.05416666716,116.7103806,
0.05583333597,117.0057602,
0.05750000104,116.9640579,
0.05916666612,116.5444565,
0.06083333492,116.566246,
0.0625,117.1651077,
0.06416667253,116.0182648,
0.0658333376,116.3986969,
0.06750000268,117.0592194,
0.06916666776,116.1261368,
0.07083333284,117.4298401,
0.07249999791,117.5870361,
0.07416667044,116.2045746,
0.07583333552,116.6243134,
0.0775000006,117.4508972,
0.07916666567,116.5597763,
0.08083333075,117.8609924,
0.08250000328,118.053566,
0.08416666836,117.3619766,
0.08583333343,118.0449677,
0.08749999851,117.2024384,
0.08916666359,116.6055984,
0.09083333611,116.3794174,
0.09250000119,118.0551682,
0.09416666627,116.7925797,
0.09583333135,115.8985519,
0.09749999642,117.2294083,
0.09916666895,117.2834549,
0.100833334,118.7005463,
0.1024999991,116.4256973,
0.1041666642,116.9316406,
0.1058333293,117.0014801,
0.1075000018,115.8135376,
0.1091666669,116.3650055,
0.1108333319,116.2974472,
0.112499997,115.6916504,
0.1141666621,116.1568756,
0.1158333346,116.8001404,
0.1174999997,116.4173126,
0.1191666648,116.8359833,
0.1208333299,116.9783783,
0.1224999949,116.2048416,
0.1241666749,115.7955399,
0.1258333325,116.1483383,
0.1274999976,116.445549,
0.1291666627,117.2892532,
0.1308333278,116.6615448,
0.1325000077,115.281662,
0.1341666728,117.2930527,
0.1358333379,116.5373154,
0.137500003,116.7702179,
0.1391666681,116.7792358,
0.1408333331,115.8913803,
0.1424999982,116.6575165,
0.1441666782,117.0518723,
0.1458333284,117.0179825,
0.1475000083,116.9331284,
0.1491666585,116.4706116,
0.1508333385,115.9736023,
0.1525000036,116.2629395,
0.1541666687,116.8414993,
0.1558333337,116.8250122,
0.1574999988,116.4078522,
0.1591666639,116.8808975,
0.1608333439,116.2013321,
0.162499994,116.4772873,
0.164166674,116.7686081,
0.1658333242,117.0986862,
0.1675000042,117.1969452,
0.1691666692,116.3872604,
0.1708333343,117.7639084,
0.1724999994,116.7911682,
0.1741666645,115.6232452,
0.1758333296,117.586113,
0.1775000095,116.6315613,
0.1791666597,115.9138718,
0.1808333397,116.3691483,
0.1824999899,115.803833,
0.1841666698,116.9662933,
0.1858333498,116.2295074,
0.1875,116.1792755,
0.18916668,117.673317,
0.1908333302,116.984726,
0.1925000101,117.4412003,
0.1941666752,115.7990417,
0.1958333403,115.8640366,
0.1975000054,117.1088181,
0.1991666704,116.8903961,
0.2008333355,117.5628662,
0.2025000155,117.4789276,
0.2041666657,117.3858414,
0.2058333457,116.0361633,
0.2074999958,117.4743347,
0.2091666758,116.0657425,
0.2108333409,116.6210022,
0.212500006,117.0136795,
0.214166671,117.292244,
0.2158333361,116.001915,
0.2175000012,116.4084396,
0.2191666812,115.658905,
0.2208333313,117.2029724,
0.2225000113,117.3992844,
0.2241666615,117.209053,
0.2258333415,116.5339737,
0.2275000066,116.1981659,
0.2291666716,117.0838394,
0.2308333367,116.3961258,
0.2325000018,117.0574493,
0.2341666669,115.9535599,
0.2358333468,116.4305725,
0.237499997,116.9884949,
0.239166677,116.4194794,
0.2408333272,117.2849503,
0.2425000072,116.7096176,
0.2441666722,117.0532455,
0.2458333373,116.7815475,
0.2475000024,116.8057175,
0.2491666675,115.9885483,
0.2508333325,116.5003433,
0.2524999976,116.3256989,
0.2541666627,116.1606522,
0.2558333278,116.7581711,
0.2574999928,116.6281357,
0.2591666579,117.5404358,
0.2608333528,117.9112473,
0.2624999881,116.7164536,
0.264166683,115.9882202,
0.2658333182,117.1293488,
0.2675000131,116.1824493,
0.2691666484,115.7941895,
0.2708333433,115.082756,
0.2725000083,116.4354248,
0.2741666734,116.9342346,
0.2758333385,117.16642,
0.2775000036,117.2179489,
0.2791666687,116.1676788,
0.2808333337,116.2059021,
0.2824999988,118.4350815,
0.2841666937,117.8615799,
0.285833329,117.2473068,
0.287499994,116.2664337,
0.2891666591,116.6034546,
0.290833354,116.9049072,
0.2925000191,117.1426849,
0.2941666543,117.369873,
0.2958333194,117.2799835,
0.2975000143,117.4976807,
0.2991666794,116.5162277,
0.3008333445,117.0055618,
0.3024999797,117.3979492,
0.3041666746,116.267807,
0.3058333397,117.5235672,
0.3075000048,117.5782242,
0.3091666996,116.4304199,
0.3108333349,117.3679428,
0.3125,117.6100159,
0.3141666651,118.0192947,
0.31583336,116.8247986,
0.317500025,116.7782669,
0.3191666603,117.3091278,
0.3208333254,117.7359238,
0.3225000203,117.0824738,
0.3241666853,117.2814789,
0.3258333504,117.4106064,
0.3274999857,116.8587952,
0.3291666806,118.1970291,
0.3308333457,116.8329926,
0.3325000107,117.301796,
0.3341666758,116.2756577,
0.3358333409,118.2482376,
0.337500006,115.730278,
0.339166671,116.7201157,
0.3408333361,117.5355148,
0.342500031,117.2526398,
0.3441666663,116.2562408,
0.3458333313,116.1373138,
0.3474999964,116.0342026,
0.3491666913,115.9843445,
0.3508333564,117.0106964,
0.3524999917,116.543808,
0.3541666567,115.9716568,
0.3558333516,116.6808014,
0.3575000167,115.9670486,
0.3591666818,117.2717743,
0.360833317,116.2874222,
0.3625000119,117.0788422,
0.364166677,116.0823441,
0.3658333421,116.3452454,
0.3675000072,115.5456161,
0.3691666722,116.4780121,
0.3708333373,117.4496384,
0.3725000024,116.2120285,
0.3741666675,117.5605164,
0.3758333623,116.2067719,
0.3774999976,116.3924103,
0.3791666627,115.5142975,
0.3808333278,116.2120285,
0.3825000226,116.1056824,
0.3841666877,115.7701187,
0.385833323,116.4110184,
0.3874999881,116.4081421,
0.389166683,116.8219299,
0.390833348,116.2575073,
0.3925000131,117.5389709,
0.3941666484,117.2064209,
0.3958333433,116.8210678,
0.3975000083,116.110527,
0.3991666734,115.6296692,
0.4008333385,116.4409866,
0.4025000036,117.5248795,
0.4041666687,116.9503479,
0.4058333337,117.2583847,
0.4074999988,116.2113419,
0.4091666937,117.0124283,
0.410833329,117.3328629,
0.412499994,116.305748,
0.4141666591,117.0316391,
0.415833354,116.0653076,
0.4175000191,117.718338,
0.4191666543,116.6183929,
0.4208333194,116.7182388,
0.4225000143,115.9230804,
0.4241666794,116.2550507,
0.4258333445,116.8925476,
0.4274999797,117.3672867,
0.4291666746,116.1739349,
0.4308333397,115.859314,
0.4325000048,116.2071228,
0.4341666996,117.1575851,
0.4358333349,116.1616745,
0.4375,116.5316238,
0.4391666651,116.1807709,
0.44083336,116.6599579,
0.442500025,116.9589233,
0.4441666603,116.319046,
0.4458333254,116.3625717,
0.4475000203,118.4229813,
0.4491666853,116.3179474,
0.4508333504,118.0075912,
0.4524999857,116.8240585,
0.4541666806,116.6339722,
0.4558333457,115.7520523,
0.4575000107,118.1592331,
0.4591666758,117.2995834,
0.4608333409,117.4655838,
0.462500006,117.7864227,
0.464166671,118.2333374,
0.4658333361,117.8599625,
0.467500031,117.177124,
0.4691666663,115.8607864,
0.4708333313,116.8178787,
0.4724999964,116.1380997,
0.4741666913,117.3564301,
0.4758333564,116.5246582,
0.4774999917,116.8742371,
0.4791666567,116.0878525,
0.4808333516,115.8045959,
0.4825000167,117.2549286,
0.4841666818,115.759613,
0.485833317,117.2470169,
0.4875000119,115.9756699,
0.489166677,116.3646088,
0.4908333421,117.4171448,
0.4925000072,116.6555252,
0.4941666722,116.9698715,
0.4958333373,116.8244553,
0.4975000024,116.4102097,
0.4991666675,116.0206604,
0.5008333325,116.4808197,
0.5024999976,116.9210052,
0.5041666627,116.912117,
0.5058333278,116.4471664,
0.5074999928,116.2997055,
0.5091666579,116.9907455,
0.510833323,117.3819733,
0.5124999881,115.6858368,
0.5141666532,116.6597672,
0.5158333182,116.8951492,
0.5175000429,115.8801727,
0.5191666484,115.8290558,
0.5208333135,117.5568161,
0.5224999785,116.067215,
0.5241667032,117.3006516,
0.5258333683,116.6729507,
0.5274999738,116.435318,
0.5291666389,116.3151093,
0.5308333635,115.9110641,
0.5325000286,116.726738,
0.5341666341,116.4717636,
0.5358333588,117.4750824,
0.5375000238,115.7149963,
0.5391666889,116.6302261,
0.540833354,116.1261902,
0.5424999595,116.8212662,
0.5441666842,116.6560745,
0.5458333492,116.7000275,
0.5475000143,116.9888382,
0.5491666794,116.7818832,
0.5508333445,116.9812241,
0.5525000095,118.1327515,
0.5541666746,116.6346054,
0.5558333993,118.0401611,
0.5575000048,117.7336807,
0.5591666698,117.4355927,
0.5608333349,116.4643402,
0.5625,116.423439,
0.5641667247,116.4345779,
0.5658333302,118.034874,
0.5674999952,116.7806244,
0.5691667199,117.8851395,
0.5708333254,116.8957748,
0.5725000501,116.6628036,
0.5741666555,117.3916016,
0.5758333206,117.506134,
0.5775000453,116.9706497,
0.5791666508,117.7033997,
0.5808333755,117.3818283,
0.5825000405,116.4876938,
0.584166646,115.9443054,
0.5858333707,115.8177643,
0.5874999762,116.3422928,
0.5891667008,116.5522385,
0.5908333659,117.7569122,
0.5924999714,117.7856369,
0.5941666961,116.9131165,
0.5958333611,117.3442535,
0.5975000262,117.2483749,
0.5991666913,116.7390442,
0.6008332968,116.7452698,
0.6025000215,116.8927307,
0.6041666865,116.8520355,
0.6058333516,117.0735321,
0.6075000167,115.4909286,
0.6091666818,116.0980225,
0.6108333468,117.8343735,
0.6125000119,116.0624771,
0.614166677,116.3967056,
0.6158333421,117.1550446,
0.6175000072,116.871048,
0.6191666722,116.6854706,
0.6208333373,116.255249,
0.622500062,117.6884995,
0.6241666675,117.2947845,
0.6258333325,116.4823456,
0.6274999976,116.7430038,
0.6291666627,117.6765823,
0.6308333874,117.3924179,
0.6324999928,116.759964,
0.6341666579,117.3190842,
0.6358333826,115.8032837,
0.6374999881,115.8937378,
0.6391667128,116.6898575,
0.6408333182,117.0275497,
0.6424999833,116.4027863,
0.644166708,116.7912598,
0.6458333135,116.6601105,
0.6475000381,116.7334366,
0.6491667032,116.5392914,
0.6508333087,116.8081055,
0.6525000334,116.903656,
0.6541666389,116.352066,
0.6558333635,116.1895905,
0.6575000286,115.9223022,
0.6591666341,116.2085495,
0.6608333588,117.0170212,
0.6625000238,115.8614578,
0.6641666889,115.9606476,
0.665833354,116.4560699,
0.6674999595,117.8092499,
0.6691666842,115.3480225,
0.6708333492,116.2372589,
0.6725000143,116.6440048,
0.6741666794,115.6856232,
0.6758333445,115.7483826,
0.6775000095,116.1893463,
0.6791666746,117.0101318,
0.6808333993,116.4747543,
0.6825000048,116.8148804,
0.6841666698,116.7030334,
0.6858333349,116.0152435,
0.6875,116.3458862,
0.6891667247,116.1304474,
0.6908333302,116.5835037,
0.6924999952,116.2169037,
0.6941667199,116.6664658,
0.6958333254,116.5217285,
0.6975000501,116.8579941,
0.6991666555,115.53965,
0.7008333206,116.3409958,
0.7025000453,115.4129944,
0.7041666508,116.2024002,
0.7058333755,115.608696,
0.7075000405,116.925499,
0.709166646,116.1175766,
0.7108333707,115.6726608,
0.7124999762,117.2521973,
0.7141667008,116.8460388,
0.7158333659,116.5051498,
0.7174999714,116.5767059,
0.7191666961,115.7033081,
0.7208333611,117.1048203,
0.7225000262,115.6277542,
0.7241666913,115.7824097,
0.7258332968,116.4780045,
0.7275000215,116.6553192,
0.7291666865,116.196022,
0.7308333516,115.9071732,
0.7325000167,115.9559631,
0.7341666818,116.6303101,
0.7358333468,116.4444275,
0.7375000119,116.3122253,
0.739166677,116.451004,
0.7408333421,117.3638458,
0.7425000072,115.6291351,
0.7441666722,116.8680115,
0.7458333373,116.1357574,
0.747500062,115.7336502,
0.7491666675,116.7773514,
0.7508333325,116.1182785,
0.7524999976,115.7599411,
0.7541666627,116.7762604,
0.7558333874,117.4156723,
0.7574999928,116.2110138,
0.7591666579,115.2933502,
0.7608333826,116.8115311,
0.7624999881,116.2581024,
0.7641667128,117.6333008,
0.7658333182,116.4557114,
0.7674999833,116.9760895,
0.769166708,116.3539886,
0.7708333135,116.6741104,
0.7725000381,116.0851364,
0.7741667032,115.9299927,
0.7758333087,115.8861008,
0.7775000334,116.1144485,
0.7791666389,116.1351318,
0.7808333635,116.4333496,
0.7825000286,116.6435165,
0.7841666341,117.2890625,
0.7858333588,115.6953659,
0.7875000238,115.7853546,
0.7891666889,116.1646347,
0.790833354,116.6206665,
0.7924999595,117.6177521,
0.7941666842,116.7443008,
0.7958333492,116.350296,
0.7975000143,117.2879257,
0.7991666794,114.4351196,
0.8008333445,115.0893707,
0.8025000095,117.0197906,
0.8041666746,116.3432541,
0.8058333993,116.9450531,
0.8075000048,116.7625046,
0.8091666698,115.8949432,
0.8108333349,116.0324402,
0.8125,117.0756683,
0.8141667247,116.5487137,
0.8158333302,115.8253784,
0.8174999952,116.0086517,
0.8191667199,117.3392258,
0.8208333254,117.1880264,
0.8225000501,117.3990173,
0.8241666555,116.9525833,
0.8258333206,116.8688278,
0.8275000453,117.1224365,
0.8291666508,116.6735001,
0.8308333755,116.2727737,
0.8325000405,116.7450333,
0.834166646,116.055687,
0.8358333707,115.6946487,
0.8374999762,115.9322281,
0.8391667008,115.593338,
0.8408333659,116.4628906,
0.8424999714,116.5742188,
0.8441666961,116.0799484,
0.8458333611,116.2533264,
0.8475000262,116.8065186,
0.8491666913,116.2263184,
0.8508332968,116.3618698,
0.8525000215,116.4254684,
0.8541666865,116.2757034,
0.8558333516,116.232132,
0.8575000167,116.437561,
0.8591666818,117.3802948,
0.8608333468,116.1516342,
0.8625000119,115.9389725,
0.864166677,116.4987488,
0.8658333421,117.2045898,
0.8675000072,116.3974762,
0.8691666722,116.3230515,
0.8708333373,115.4720306,
0.872500062,116.2728729,
0.8741666675,116.2840424,
0.8758333325,116.0098724,
0.8774999976,116.4690933,
0.8791666627,116.1896515,
0.8808333874,116.8271942,
0.8824999928,116.2627258,
0.8841666579,116.9790039,
0.8858333826,116.2154007,
0.8874999881,117.6572037,
0.8891667128,116.5670547,
0.8908333182,116.511673,
0.8924999833,116.3940735,
0.894166708,115.8931274,
0.8958333135,116.9794922,
0.8975000381,116.5832748,
0.8991667032,116.7849808,
0.9008333087,116.724205,
0.9025000334,116.892128,
0.9041666389,115.8007813,
0.9058333635,115.8335495,
0.9075000286,116.0467911,
0.9091666341,117.3178177,
0.9108333588,117.0761414,
0.9125000238,116.1956253,
0.9141666889,116.3750687,
0.915833354,116.2131653,
0.9174999595,117.2557526,
0.9191666842,116.3591614,
0.9208333492,116.5233459,
0.9225000143,116.854126,
0.9241666794,116.948204,
0.9258333445,116.3835068,
0.9275000095,117.33638,
0.9291666746,116.5058136,
0.9308333993,116.2877655,
0.9325000048,116.4783478,
0.9341666698,116.3723068,
0.9358333349,115.7814102,
0.9375,116.8353577,
0.9391667247,114.8788986,
0.9408333302,115.8469696,
0.9424999952,117.0999832,
0.9441667199,116.4125137,
0.9458333254,116.885025,
0.9475000501,115.6784515,
0.9491666555,115.9525604,
0.9508333206,115.2621002,
0.9525000453,118.0992508,
0.9541666508,115.3839035,
0.9558333755,117.1313171,
0.9575000405,115.5363159,
0.959166646,116.1142273,
0.9608333707,115.7440186,
0.9624999762,116.3722763,
0.9641667008,116.7222137,
0.9658333659,116.5423889,
0.9674999714,116.3389511,
0.9691666961,116.5872269,
0.9708333611,116.6977615,
0.9725000262,117.0162659,
0.9741666913,117.0235214,
0.9758332968,116.5116043,
0.9775000215,116.2274475,
0.9791666865,116.9849777,
0.9808333516,116.0047455,
0.9825000167,115.7830963,
0.9841666818,117.114212,
0.9858333468,115.8402634,
0.9875000119,116.1681595,
0.989166677,116.7983322,
0.9908333421,116.1696091,
0.9925000072,116.6362915,
0.9941666722,117.0236511,
0.9958333373,116.1126099,
0.997500062,116.490654,
0.9991666675,116.94664,
1.000833273,116.9994125,
1.002500057,116.8316193,
1.004166722,116.7996521,
1.005833387,116.6508102,
1.007500052,116.2845764,
1.009166598,116.4761887,
1.010833383,116.3845291,
1.012500048,116.8987427,
1.014166713,117.1195755,
1.015833378,115.0926819,
1.017500043,104.1871719,
1.019166708,100.3749619,
1.020833373,95.89149475,
1.022500038,105.7004547,
1.024166703,107.799675,
1.025833368,98.36562347,
1.027500033,108.8496704,
1.029166698,104.4661789,
1.030833364,104.5513153,
1.032500029,105.4440842,
1.034166694,101.911026,
1.035833359,108.7762451,
1.037500024,99.6302948,
1.039166689,105.0031586,
1.040833354,107.0464172,
1.042500019,110.7618942,
1.044166684,110.7840729,
1.045833349,111.2884445,
1.047500014,109.6825333,
1.049166679,109.464241,
1.050833344,109.0817108,
1.05250001,108.9792099,
1.054166675,109.4822464,
1.05583334,108.6487122,
1.057500005,109.9679947,
1.05916667,107.9498596,
1.060833335,107.7765427,
1.0625,107.7348862,
1.064166665,107.6960602,
1.06583333,107.6360321,
1.067499995,106.9919968,
1.06916666,106.4019928,
1.070833325,105.9695587,
1.07249999,106.5215225,
1.074166775,105.6350708,
1.07583344,107.4366684,
1.077499986,104.9179535,
1.079166651,106.0211945,
1.080833316,105.6716156,
1.0825001,105.0787354,
1.084166765,105.7474213,
1.085833311,106.2372971,
1.087499976,105.096962,
1.089166641,104.7623749,
1.090833426,105.1343231,
1.092500091,104.0166245,
1.094166636,104.6572037,
1.095833302,103.6535034,
1.097499967,103.2275696,
1.099166751,104.0863419,
1.100833416,103.883667,
1.102500081,104.0762634,
1.104166627,103.1869125,
1.105833292,102.7149582,
1.107500076,102.867485,
1.109166741,102.8675995,
1.110833406,103.2664719,
1.112499952,102.4233093,
1.114166617,101.7902222,
1.115833402,101.5308685,
1.117500067,103.5218811,
1.119166732,101.9591064,
1.120833278,102.5880127,
1.122499943,102.8246002,
1.124166727,100.982048,
1.125833392,101.7312698,
1.127500057,101.9936981,
1.129166722,101.6910477,
1.130833268,101.921402,
1.132500052,100.4491806,
1.134166718,101.4706802,
1.135833383,101.2342529,
1.137500048,100.7397537,
1.139166594,99.97408295,
1.140833378,100.704422,
1.142500043,100.8903885,
1.144166708,98.66870117,
1.145833373,100.8197708,
1.147499919,99.9708786,
1.149166703,99.63293457,
1.150833368,100.3732376,
1.152500033,100.7361526,
1.154166698,100.0271606,
1.155833364,99.95819092,
1.157500029,98.90625763,
1.159166694,99.79676819,
1.160833359,99.92404175,
1.162500024,99.47285461,
1.164166689,99.20467377,
1.165833354,98.33763885,
1.167500019,99.75115204,
1.169166684,98.73747253,
1.170833349,99.19888306,
1.172500014,97.45070648,
1.174166799,98.08155823,
1.175833344,98.23414612,
1.17750001,97.85910797,
1.179166675,98.52347565,
1.18083334,99.0835495,
1.182500124,97.86956787,
1.18416667,99.05389404,
1.185833335,99.24851227,
1.1875,98.22167969,
1.189166665,98.73950958,
1.190833449,98.23416138,
1.192499995,98.15579224,
1.19416666,98.35264587,
1.195833325,97.39516449,
1.19749999,98.19749451,
1.199166775,96.86676788,
1.20083344,97.63938904,
1.202499986,97.34266663,
1.204166651,97.30889893,
1.205833316,96.53342438,
1.2075001,96.83415985,
1.209166765,97.53993988,
1.210833311,97.12210846,
1.212499976,96.87879181,
1.214166641,96.16408539,
1.215833426,97.11810303,
1.217500091,97.03257751,
1.219166636,96.7540741,
1.220833302,96.48667145,
1.222499967,97.19798279,
1.224166751,96.08506775,
1.225833416,97.22457886,
1.227500081,96.27722931,
1.229166627,96.34140778,
1.230833292,95.7050705,
1.232500076,97.15710449,
1.234166741,95.86805725,
1.235833406,97.1290741,
1.237499952,96.68598175,
1.239166617,95.45865631,
1.240833402,95.80354309,
1.242500067,95.38904572,
1.244166732,95.34856415,
1.245833278,95.60080719,
1.247499943,94.98867798,
1.249166727,96.11560822,
1.250833392,95.40338898,
1.252500057,95.92531586,
1.254166722,95.23141479,
1.255833268,95.69345093,
1.257500052,96.06298065,
1.259166718,95.00078583,
1.260833383,95.74539948,
1.262500048,95.00439453,
1.264166594,95.10613251,
1.265833378,94.69904327,
1.267500043,94.63677979,
1.269166708,95.69487762,
1.270833373,95.54576111,
1.272499919,95.35998535,
1.274166703,94.75505829,
1.275833368,94.70903778,
1.277500033,96.19998932,
1.279166698,93.80696869,
1.280833364,94.45479584,
1.282500029,93.93405914,
1.284166694,94.42395782,
1.285833359,94.2197876,
1.287500024,94.92033386,
1.289166689,94.74777985,
1.290833354,93.94850159,
1.292500019,95.40812683,
1.294166684,94.16432953,
1.295833349,95.45656586,
1.297500014,93.91147614,
1.299166799,94.64807129,
1.300833344,94.55775452,
1.30250001,94.96705627,
1.304166675,94.55342865,
1.30583334,94.01808929,
1.307500124,93.18365479,
1.30916667,94.63169861,
1.310833335,94.93917084,
1.3125,94.42901611,
1.314166665,94.32373047,
1.315833449,94.13647461,
1.317499995,93.48908997,
1.31916666,93.6726532,
1.320833325,93.97170258,
1.32249999,93.88102722,
1.324166775,92.68973541,
1.32583344,94.05741119,
1.327499986,93.2313385,
1.329166651,93.93170166,
1.330833316,93.94182587,
1.3325001,94.00499725,
1.334166765,92.98001099,
1.335833311,93.14542389,
1.337499976,93.26158905,
1.339166641,92.94358063,
1.340833426,92.56567383,
1.342500091,93.01445007,
1.344166636,93.03939056,
1.345833302,93.88684845,
1.347499967,93.76560211,
1.349166751,94.45509338,
1.350833416,93.01300812,
1.352500081,92.72618866,
1.354166627,94.08435059,
1.355833292,92.36142731,
1.357500076,93.54814911,
1.359166741,93.29295349,
1.360833406,92.0909729,
1.362499952,93.04560089,
1.364166617,91.65022278,
1.365833402,92.58027649,
1.367500067,92.71218109,
1.369166732,92.84497833,
1.370833278,91.93899536,
1.372499943,92.75804901,
1.374166727,93.27104187,
1.375833392,92.3415451,
1.377500057,92.81266022,
1.379166722,92.93844604,
1.380833268,91.72830963,
1.382500052,92.83068085,
1.384166718,92.25946808,
1.385833383,93.7631073,
1.387500048,93.06558228,
1.389166594,92.74428558,
1.390833378,92.55496979,
1.392500043,92.76634216,
1.394166708,92.70333099,
1.395833373,92.83277893,
1.397499919,91.99337006,
1.399166703,92.47283173,
1.400833368,93.594841,
1.402500033,93.19372559,
1.404166698,92.06477356,
1.405833364,92.14199829,
1.407500029,92.38465881,
1.409166694,92.85746765,
1.410833359,91.8026886,
1.412500024,91.90398407,
1.414166689,92.26494598,
1.415833354,92.91001892,
1.417500019,91.90830231,
1.419166684,92.19515228,
1.420833349,92.20153809,
1.422500014,91.42832184,
1.424166799,92.10919952,
1.425833344,92.01892853,
1.42750001,91.1308136,
1.429166675,92.32420349,
1.43083334,91.65450287,
1.432500124,92.21965027,
1.43416667,91.64880371,
1.435833335,92.37307739,
1.4375,91.92726898,
1.439166665,92.07288361,
1.440833449,91.24221039,
1.442499995,91.49832153,
1.44416666,91.90260315,
1.445833325,91.20332336,
1.44749999,91.28340912,
1.449166775,91.35874176,
1.45083344,92.22449493,
1.452499986,91.02653503,
1.454166651,91.22319031,
1.455833316,91.00632477,
1.4575001,91.35375214,
1.459166765,91.86592102,
1.460833311,91.23200989,
1.462499976,91.61601257,
1.464166641,91.31544495,
1.465833426,91.14931488,
1.467500091,91.30880737,
1.469166636,91.23570251,
1.470833302,91.14607239,
1.472499967,90.6565094,
1.474166751,91.01191711,
1.475833416,90.8757782,
1.477500081,91.8881073,
1.479166627,91.03398132,
1.480833292,91.01530457,
1.482500076,91.30054474,
1.484166741,91.84505463,
1.485833406,91.22566986,
1.487499952,91.38199615,
1.489166617,90.86372375,
1.490833402,91.08578491,
1.492500067,91.11793518,
1.494166732,92.36904907,
1.495833278,90.74729919,
1.497499943,91.11035156,
1.499166727,92.01400757,
1.500833392,90.65291595,
1.502500057,91.9106369,
1.504166722,91.66026306,
1.505833268,91.15750122,
1.507500052,90.10738373,
1.509166718,91.15545654,
1.510833383,90.56687927,
1.512500048,90.69786072,
1.514166594,89.85457611,
1.515833378,90.84735107,
1.517500043,90.23554993,
1.519166708,90.79574585,
1.520833373,90.8589325,
1.522499919,91.12792969,
1.524166703,91.16570282,
1.525833368,90.67709351,
1.527500033,90.52561188,
1.529166698,91.56177521,
1.530833364,91.55275726,
1.532500029,89.90766144,
1.534166694,89.62322235,
1.535833359,90.80760193,
1.537500024,91.17666626,
1.539166689,91.37986755,
1.540833354,91.30845642,
1.542500019,90.25436401,
1.544166684,90.8684845,
1.545833349,91.41105652,
1.547500014,91.04307556,
1.549166799,89.6717453,
1.550833344,89.84099579,
1.55250001,90.44558716,
1.554166675,90.50450134,
1.55583334,91.14787292,
1.557500124,89.77101135,
1.55916667,90.31687164,
1.560833335,89.58667755,
1.5625,89.36615753,
1.564166665,90.45903015,
1.565833449,90.85488129,
1.567499995,91.29827118,
1.56916666,89.79914856,
1.570833325,90.17262268,
1.57249999,89.86004639,
1.574166775,90.58875275,
1.57583344,90.45974731,
1.577499986,90.21296692,
1.579166651,90.51023865,
1.580833316,90.90578461,
1.5825001,90.17863464,
1.584166765,90.48601532,
1.585833311,90.77005005,
1.587499976,90.36833191,
1.589166641,90.71775055,
1.590833426,89.8004837,
1.592500091,90.38039398,
1.594166636,89.85648346,
1.595833302,89.50975037,
1.597499967,90.92958832,
1.599166751,90.96007538,
1.600833416,90.55540466,
1.602500081,90.50670624,
1.604166627,90.07551575,
1.605833292,90.14539337,
1.607500076,90.10401917,
1.609166741,89.90821075,
1.610833406,89.79640961,
1.612499952,89.99555206,
1.614166617,90.22808075,
1.615833402,89.34781647,
1.617500067,90.6627655,
1.619166732,89.64064026,
1.620833278,89.62834167,
1.622499943,90.58969879,
1.624166727,89.61013794,
1.625833392,89.42230225,
1.627500057,90.5148468,
1.629166722,89.92743683,
1.630833268,90.49018097,
1.632500052,89.60909271,
1.634166718,90.60871124,
1.635833383,90.02802277,
1.637500048,90.16368103,
1.639166594,90.81208038,
1.640833378,89.80420685,
1.642500043,89.92823792,
1.644166708,89.11740875,
1.645833373,90.21739197,
1.647499919,90.86843109,
1.649166703,90.73825073,
1.650833368,89.77897644,
1.652500033,89.51602936,
1.654166698,88.84100342,
1.655833364,90.29049683,
1.657500029,89.55250549,
1.659166694,89.26110077,
1.660833359,89.85227966,
1.662500024,90.3387146,
1.664166689,90.3957901,
1.665833354,89.35199738,
1.667500019,90.09259033,
1.669166684,90.40966034,
1.670833349,89.64325714,
1.672500014,90.54416656,
1.674166799,89.53594971,
1.675833344,89.2082901,
1.67750001,89.66652679,
1.679166675,88.89818573,
1.68083334,89.51103973,
1.682500124,88.75352478,
1.68416667,88.61663055,
1.685833335,88.63038635,
1.6875,88.61994934,
1.689166665,89.58634949,
1.690833449,89.11818695,
1.692499995,89.19150543,
1.69416666,89.35970306,
1.695833325,89.90618896,
1.69749999,87.81560516,
1.699166775,88.55767059,
1.70083344,88.79970551,
1.702499986,88.41139984,
1.704166651,89.49681854,
1.705833316,88.45758057,
1.7075001,89.61901093,
1.709166765,89.9280777,
1.710833311,89.46351624,
1.712499976,89.5412674,
1.714166641,89.27352905,
1.715833426,88.87976074,
1.717500091,89.7594223,
1.719166636,88.97856903,
1.720833302,89.04645538,
1.722499967,89.83750153,
1.724166751,89.47039032,
1.725833416,89.56781769,
1.727500081,88.34133148,
1.729166627,89.70955658,
1.730833292,89.61457062,
1.732500076,89.65312195,
1.734166741,89.53921509,
1.735833406,88.15113831,
1.737499952,88.44844818,
1.739166617,89.1471405,
1.740833402,89.85218048,
1.742500067,88.13285065,
1.744166732,89.51926422,
1.745833278,89.49329376,
1.747499943,89.28848267,
1.749166727,89.11485291,
1.750833392,88.985672,
1.752500057,88.274086,
1.754166722,88.8886261,
1.755833268,88.27124786,
1.757500052,89.35635376,
1.759166718,89.54677582,
1.760833383,88.8529892,
1.762500048,88.90871429,
1.764166594,88.60371399,
1.765833378,88.58303833,
1.767500043,88.67929077,
1.769166708,88.18286896,
1.770833373,88.60598755,
1.772499919,87.98828888,
1.774166703,89.69367981,
1.775833368,89.00614166,
1.777500033,88.65563202,
1.779166698,87.94960022,
1.780833364,88.19521332,
1.782500029,88.61448669,
1.784166694,89.02729034,
1.785833359,88.22467804,
1.787500024,89.24330902,
1.789166689,88.61125946,
1.790833354,88.38443756,
1.792500019,88.84799194,
1.794166684,88.62320709,
1.795833349,89.599823,
1.797500014,88.49590302,
1.799166799,88.90328979,
1.800833344,88.21807098,
1.80250001,87.92578888,
1.804166675,87.82358551,
1.80583334,88.8852005,
1.807500124,88.36036682,
1.80916667,88.28359985,
1.810833335,89.02786255,
1.8125,88.7358017,
1.814166665,89.42035675,
1.815833449,89.52900696,
1.817499995,88.86029053,
1.81916666,88.28569794,
1.820833325,88.67541504,
1.82249999,89.02603149,
1.824166775,88.65118408,
1.82583344,88.88246155,
1.827499986,88.28948975,
1.829166651,88.61504364,
1.830833316,88.33506012,
1.8325001,88.93427277,
1.834166765,88.24234009,
1.835833311,89.12953186,
1.837499976,89.43225098,
1.839166641,89.52386475,
1.840833426,88.23529816,
1.842500091,88.25940704,
1.844166636,87.35077667,
1.845833302,88.50688934,
1.847499967,88.8205719,
1.849166751,88.14032745,
1.850833416,88.19042206,
1.852500081,87.34767914,
1.854166627,88.5134201,
1.855833292,89.21592712,
1.857500076,88.1184082,
1.859166741,89.51154327,
1.860833406,87.77144623,
1.862499952,87.44489288,
1.864166617,88.53494263,
1.865833402,88.70429993,
1.867500067,88.13779449,
1.869166732,88.33074951,
1.870833278,88.61938477,
1.872499943,88.08590698,
1.874166727,88.52827454,
1.875833392,88.6493988,
1.877500057,88.11863708,
1.879166722,87.66812897,
1.880833268,87.85558319,
1.882500052,88.65660858,
1.884166718,88.37045288,
1.885833383,88.50403595,
1.887500048,88.02313995,
1.889166594,88.52358246,
1.890833378,88.52307129,
1.892500043,88.08909607,
1.894166708,87.75898743,
1.895833373,87.8841095,
1.897499919,88.62936401,
1.899166703,88.23403931,
1.900833368,88.29486084,
1.902500033,88.57785797,
1.904166698,88.21785736,
1.905833364,88.97863007,
1.907500029,88.09381104,
1.909166694,87.81251526,
1.910833359,88.94779205,
1.912500024,88.79459381,
1.914166689,87.55738068,
1.915833354,88.17236328,
1.917500019,88.40626526,
1.919166684,88.74058533,
1.920833349,88.00349426,
1.922500014,87.52303314,
1.924166799,88.60791016,
1.925833344,88.27220917,
1.92750001,88.23279572,
1.929166675,88.27113342,
1.93083334,89.13761139,
1.932500124,87.5541153,
1.93416667,87.15978241,
1.935833335,87.32081604,
1.9375,88.52557373,
1.939166665,87.88863373,
1.940833449,87.95937347,
1.942499995,87.80862427,
1.94416666,88.30121613,
1.945833325,87.79516602,
1.94749999,88.50222778,
1.949166775,87.78610229,
1.95083344,88.40416718,
1.952499986,88.2669754,
1.954166651,88.02754974,
1.955833316,87.96419525,
1.9575001,87.31697845,
1.959166765,88.28303528,
1.960833311,87.84510803,
1.962499976,88.15834808,
1.964166641,88.22705078,
1.965833426,88.22354889,
1.967500091,88.16534424,
1.969166636,87.6332016,
1.970833302,87.97727966,
1.972499967,88.77405548,
1.974166751,88.34820557,
1.975833416,88.78251648,
1.977500081,88.10808563,
1.979166627,87.13848877,
1.980833292,87.88272095,
1.982500076,88.13382721,
1.984166741,88.03768158,
1.985833406,88.70315552,
1.987499952,87.69764709,
1.989166617,88.27035522,
1.990833402,87.72637177,
1.992500067,88.21018982,
1.994166732,87.55078125,
1.995833278,88.25022125,
1.997499943,87.57424927,
1.999166727,88.74234009,
2.000833273,88.01701355,
2.002500057,88.0555954,
2.004166603,87.7472229,
2.005833387,88.00753784,
2.007500172,88.26392365,
2.009166718,87.76132202,
2.010833263,88.17185974,
2.012500048,88.23262787,
2.014166594,87.84124756,
2.015833378,88.70317841,
2.017500162,88.13563538,
2.019166708,88.15505981,
2.020833254,87.44911194,
2.022500038,88.28004456,
2.024166822,88.51011658,
2.025833368,88.06300354,
2.027499914,87.7270813,
2.029166698,88.3807373,
2.030833244,87.75710297,
2.032500029,87.81716919,
2.034166813,88.61565399,
2.035833359,87.14924622,
2.037499905,87.69220734,
2.039166689,88.29472351,
2.040833473,88.68566132,
2.042500019,87.81156921,
2.044166803,88.15391541,
2.045833349,87.95559692,
2.047499895,87.89421082,
2.049166679,87.66649628,
2.050833464,88.00219727,
2.05250001,87.35901642,
2.054166555,87.79691315,
2.05583334,86.94673157,
2.057500124,88.5467453,
2.05916667,87.42632294,
2.060833454,87.2638855,
2.0625,88.67438507,
2.064166546,87.89202881,
2.06583333,87.58087921,
2.067500114,88.16830444,
2.06916666,87.5070343,
2.070833445,86.96833038,
2.07249999,88.53927612,
2.074166775,88.21723175,
2.075833321,87.20279694,
2.077500105,88.63253021,
2.079166651,88.70045471,
2.080833197,87.07313538,
2.082499981,87.98823547,
2.084166765,88.34037018,
2.085833311,88.97636414,
2.087500095,87.45448303,
2.089166641,87.70391083,
2.090833426,88.44185638,
2.092499971,87.41320801,
2.094166756,87.49992371,
2.095833302,88.02328491,
2.097500086,86.6089325,
2.099166632,87.38654327,
2.100833416,88.14912415,
2.102499962,88.08931732,
2.104166746,88.80059052,
2.105833292,87.26725006,
2.107500076,88.67980194,
2.109166622,87.97236633,
2.110833406,86.88217163,
2.112499952,87.85145569,
2.114166737,86.9987793,
2.115833521,88.58731079,
2.117500067,88.80138397,
2.119166613,88.10070801,
2.120833397,88.27828217,
2.122499943,86.98830414,
2.124166727,86.97810364,
2.125833273,88.13423157,
2.127500057,86.83895874,
2.129166603,88.60797882,
2.130833387,87.73406982,
2.132500172,87.1845932,
2.134166718,87.66277313,
2.135833502,87.83795929,
2.137500048,86.50285339,
2.139166832,86.82556915,
2.140833378,88.02364349,
2.142500162,88.12902832,
2.144166708,86.53063965,
2.145833254,87.33815002,
2.147500038,87.15370941,
2.149166584,87.8168335,
2.150833368,87.08640289,
2.152500153,87.57810211,
2.154166698,87.31113434,
2.155833483,87.20294952,
2.157500029,87.4504776,
2.159166813,86.26976776,
2.160833597,87.69697571,
2.162499905,87.06420898,
2.164166689,87.016716,
2.165833235,87.44898224,
2.167500019,87.64122772,
2.169166803,87.07691956,
2.170833349,87.90111542,
2.172500134,87.76914215,
2.174166679,87.40982819,
2.175833464,87.58680725,
2.177500248,88.27006531,
2.179166555,88.22814178,
2.18083334,87.13098145,
2.182499886,87.41812134,
2.18416667,87.73426819,
2.185833454,87.26338959,
2.1875,87.51470184,
2.189166784,87.62211609,
2.19083333,87.40821075,
2.192500114,87.59105682,
2.194166899,86.9985199,
2.195833445,87.57883453,
2.19749999,86.98279572,
2.199166536,87.76292419,
2.200833321,86.92584229,
2.202500105,86.9520874,
2.204166651,87.8082962,
2.205833435,87.37258148,
2.207499981,86.17075348,
2.209166765,88.07506561,
2.210833549,88.23960114,
2.212500095,87.5109024,
2.21416688,86.67585754,
2.215833187,87.58489227,
2.217499971,87.71940613,
2.219166756,86.43052673,
2.220833302,87.97187042,
2.222500086,86.65316772,
2.224166632,87.14471436,
2.225833416,87.71257782,
2.2275002,87.93037415,
2.229166746,87.56925201,
2.23083353,86.93055725,
2.232499838,86.43526459,
2.234166622,87.34104919,
2.235833406,87.68336487,
2.237499952,87.16547394,
2.239166737,87.45550537,
2.240833282,86.80490875,
2.242500067,87.1673584,
2.244166851,88.07987213,
2.245833397,87.78227997,
2.247500181,87.83214569,
2.249166727,87.44026947,
2.250833273,87.49220276,
2.252500057,87.13278961,
2.254166603,87.19829559,
2.255833387,86.85719299,
2.257499933,87.76390839,
2.259166718,86.53181458,
2.260833502,87.47550201,
2.262500048,87.60754395,
2.264166832,87.98920441,
2.265833378,87.83522797,
2.267500162,86.73860931,
2.269166708,86.61608124,
2.270833254,87.07012177,
2.272500038,86.11995697,
2.274166584,86.59428406,
2.275833368,87.98279572,
2.277500153,86.82936096,
2.279166698,87.64472198,
2.280833483,86.38129425,
2.282500029,87.54270935,
2.284166813,87.52732849,
2.285833597,87.6924057,
2.287499905,88.37156677,
2.289166689,86.49205017,
2.290833235,86.82752991,
2.292500019,87.12382507,
2.294166803,87.53229523,
2.295833349,86.43704987,
2.297500134,86.43631744,
2.299166679,87.54947662,
2.300833464,86.92333984,
2.302500248,86.85991669,
2.304166555,86.44879913,
2.30583334,86.6860733,
2.307499886,88.44274139,
2.30916667,87.11898804,
2.310833454,87.13491058,
2.3125,87.8002243,
2.314166784,87.00990295,
2.31583333,87.16493225,
2.317500114,87.92259216,
2.319166899,87.70323181,
2.320833445,86.86217499,
2.32249999,86.91684723,
2.324166536,87.26222992,
2.325833321,87.69234467,
2.327500105,87.1213913,
2.329166651,87.58979034,
2.330833435,87.43173218,
2.332499981,86.96442413,
2.334166765,87.7795105,
2.335833549,87.2228775,
2.337500095,86.18752289,
2.33916688,87.5990448,
2.340833187,87.96773529,
2.342499971,87.38279724,
2.344166756,86.77401733,
2.345833302,86.98960876,
2.347500086,87.61737061,
2.349166632,87.88419342,
2.350833416,87.94217682,
2.3525002,86.94408417,
2.354166746,86.46486664,
2.35583353,87.69613647,
2.357499838,86.70919037,
2.359166622,86.97665405,
2.360833406,86.85560608,
2.362499952,86.58280182,
2.364166737,87.22312164,
2.365833282,85.94016266,
2.367500067,87.03477478,
2.369166851,87.21083832,
2.370833397,87.28457642,
2.372500181,86.08213043,
2.374166727,87.33332062,
2.375833273,86.78768921,
2.377500057,87.59598541,
2.379166603,87.38102722,
2.380833387,86.37471008,
2.382499933,87.97566986,
2.384166718,87.40946198,
2.385833502,86.79949951,
2.387500048,86.66858673,
2.389166832,87.43186188,
2.390833378,87.30049133,
2.392500162,87.89409637,
2.394166708,86.45924377,
2.395833254,87.47099304,
2.397500038,86.84992981,
2.399166584,87.13298798,
2.400833368,86.71756744,
2.402500153,87.32377625,
2.404166698,87.05075073,
2.405833483,86.98860931,
2.407500029,87.0953064,
2.409166813,87.50721741,
2.410833597,87.08554077,
2.412499905,87.66451263,
2.414166689,86.49914551,
2.415833235,87.10037994,
2.417500019,86.333992,
2.419166803,86.49137878,
2.420833349,86.72730255,
2.422500134,86.96608734,
2.424166679,87.35179901,
2.425833464,86.57208252,
2.427500248,87.57546997,
2.429166555,87.03377533,
2.43083334,87.00873566,
2.432499886,86.81244659,
2.43416667,86.16390991,
2.435833454,86.69558716,
2.4375,87.03492737,
2.439166784,87.29179382,
2.44083333,87.42582703,
2.442500114,87.25473022,
2.444166899,86.59732056,
2.445833445,87.22657013,
2.44749999,87.10108948,
2.449166536,88.16110992,
2.450833321,87.26908112,
2.452500105,86.78675079,
2.454166651,86.74637604,
2.455833435,86.86793518,
2.457499981,87.02005768,
2.459166765,87.80950165,
2.460833549,87.38309479,
2.462500095,86.04545593,
2.46416688,86.69494629,
2.465833187,86.59528351,
2.467499971,86.76004028,
2.469166756,87.57058716,
2.470833302,87.31656647,
2.472500086,86.60668182,
2.474166632,86.61508179,
2.475833416,87.35385895,
2.4775002,86.41143036,
2.479166746,86.91459656,
2.48083353,86.53798676,
2.482499838,87.85469055,
2.484166622,87.03997803,
2.485833406,86.46938324,
2.487499952,86.64859772,
2.489166737,87.03475189,
2.490833282,86.74516296,
2.492500067,87.15172577,
2.494166851,87.17842102,
2.495833397,86.95029449,
2.497500181,85.89952087,
2.499166727,86.43511963,
2.500833273,86.07368469,
2.502500057,87.25082397,
2.504166603,86.72640228,
2.505833387,86.54934692,
2.507499933,86.96904755,
2.509166718,86.32574463,
2.510833502,86.6771698,
2.512500048,86.62969208,
2.514166832,85.90666199,
2.515833378,87.45733643,
2.517500162,87.32862091,
2.519166708,86.29611206,
2.520833254,86.12976074,
2.522500038,86.38236237,
2.524166584,87.14414215,
2.525833368,87.04566956,
2.527500153,86.8369751,
2.529166698,86.33998108,
2.530833483,86.90100098,
2.532500029,87.4537735,
2.534166813,86.08319092,
2.535833597,86.78194427,
2.537499905,86.80973816,
2.539166689,87.2875824,
2.540833235,86.41375732,
2.542500019,87.447052,
2.544166803,86.99127197,
2.545833349,87.33105469,
2.547500134,88.03742981,
2.549166679,86.65273285,
2.550833464,87.3147049,
2.552500248,86.17834473,
2.554166555,86.47353363,
2.55583334,87.00048065,
2.557499886,86.85850525,
2.55916667,87.04618073,
2.560833454,86.52244568,
2.5625,86.41938019,
2.564166784,87.70711517,
2.56583333,86.73929596,
2.567500114,87.17338562,
2.569166899,86.79501343,
2.570833445,86.10194397,
2.57249999,86.50839233,
2.574166536,86.8690567,
2.575833321,87.03315735,
2.577500105,86.13806915,
2.579166651,86.84732056,
2.580833435,86.55426788,
2.582499981,87.54747009,
2.584166765,86.6124649,
2.585833549,86.93697357,
2.587500095,87.10697174,
2.58916688,86.92105103,
2.590833187,86.60875702,
2.592499971,87.2220993,
2.594166756,87.41069794,
2.595833302,86.21188354,
2.597500086,86.44308472,
2.599166632,85.71685791,
2.600833416,86.77475739,
2.6025002,86.53038025,
2.604166746,85.85822296,
2.60583353,86.61516571,
2.607499838,86.84820557,
2.609166622,86.74205017,
2.610833406,86.77466583,
2.612499952,86.56698608,
2.614166737,86.86988068,
2.615833282,86.47401428,
2.617500067,86.80455017,
2.619166851,85.89117432,
2.620833397,87.60240173,
2.622500181,86.73536682,
2.624166727,86.85908508,
2.625833273,87.0858078,
2.627500057,86.88381958,
2.629166603,86.93840027,
2.630833387,86.82991028,
2.632499933,87.4276123,
2.634166718,85.76400757,
2.635833502,86.28194427,
2.637500048,85.93387604,
2.639166832,86.9213562,
2.640833378,86.86811066,
2.642500162,87.05303955,
2.644166708,86.37831879,
2.645833254,86.37348938,
2.647500038,86.14707184,
2.649166584,86.54884338,
2.650833368,87.61924744,
2.652500153,87.23839569,
2.654166698,86.37349701,
2.655833483,86.47242737,
2.657500029,86.86745453,
2.659166813,86.53961182,
2.660833597,86.89679718,
2.662499905,86.84035492,
2.664166689,86.1852951,
2.665833235,86.49708557,
2.667500019,86.86495972,
2.669166803,86.72235107,
2.670833349,87.08496094,
2.672500134,86.42590332,
2.674166679,86.43895721,
2.675833464,87.3259964,
2.677500248,86.02067566,
2.679166555,86.90048981,
2.68083334,86.86659241,
2.682499886,86.45123291,
2.68416667,86.62466431,
2.685833454,87.40756226,
2.6875,87.47006226,
2.689166784,86.40496826,
2.69083333,86.75360107,
2.692500114,86.09764862,
2.694166899,86.39746094,
2.695833445,86.49375153,
2.69749999,86.85185242,
2.699166536,86.65774536,
2.700833321,86.65299225,
2.702500105,86.12999725,
2.704166651,86.40522766,
2.705833435,86.99331665,
2.707499981,87.2346344,
2.709166765,86.78955078,
2.710833549,86.69119263,
2.712500095,85.44192505,
2.71416688,85.92694092,
2.715833187,85.92718506,
2.717499971,85.89258575,
2.719166756,86.35057831,
2.720833302,86.23888397,
2.722500086,86.83495331,
2.724166632,86.7956543,
2.725833416,85.99947357,
2.7275002,86.5657959,
2.729166746,86.72833252,
2.73083353,86.60411835,
2.732499838,86.65656281,
2.734166622,87.04229736,
2.735833406,87.23468018,
2.737499952,86.3888092,
2.739166737,86.21697998,
2.740833282,85.51486206,
2.742500067,85.94935608,
2.744166851,85.96121216,
2.745833397,86.34066772,
2.747500181,86.86743927,
2.749166727,86.51068115,
2.750833273,86.69595337,
2.752500057,85.75481415,
2.754166603,86.3663559,
2.755833387,86.78626251,
2.757499933,85.96076202,
2.759166718,86.82369232,
2.760833502,86.19896698,
2.762500048,85.6339035,
2.764166832,85.73613739,
2.765833378,85.94593048,
2.767500162,86.67934418,
2.769166708,86.9382782,
2.770833254,85.32289124,
2.772500038,87.16159058,
2.774166584,86.99958801,
2.775833368,86.22682953,
2.777500153,86.16849518,
2.779166698,85.11994934,
2.780833483,86.90601349,
2.782500029,87.20871735,
2.784166813,86.43476868,
2.785833597,86.03279877,
2.787499905,87.05052948,
2.789166689,85.86419678,
2.790833235,87.40768433,
2.792500019,87.29280853,
2.794166803,86.20553589,
2.795833349,85.94717407,
2.797500134,85.84170532,
2.799166679,85.27183533,
2.800833464,86.54425049,
2.802500248,86.12036896,
2.804166555,86.80847931,
2.80583334,86.13047028,
2.807499886,86.02125549,
2.80916667,86.85688782,
2.810833454,86.1536026,
2.8125,86.90786743,
2.814166784,86.34701538,
2.81583333,86.33476257,
2.817500114,86.96074677,
2.819166899,86.80771637,
2.820833445,86.1422348,
2.82249999,85.91751099,
2.824166536,86.72577667,
2.825833321,85.61911774,
2.827500105,86.26145935,
2.829166651,86.37304688,
2.830833435,86.33920288,
2.832499981,86.61701202,
2.834166765,85.96650696,
2.835833549,86.0198288,
2.837500095,85.79573822,
2.83916688,86.49038696,
2.840833187,85.65350342,
2.842499971,86.47081757,
2.844166756,86.90859222,
2.845833302,85.75322723,
2.847500086,86.32015991,
2.849166632,87.06742859,
2.850833416,85.71685791,
2.8525002,86.15949249,
2.854166746,86.32634735,
2.85583353,85.80840302,
2.857499838,86.4241333,
2.859166622,86.61011505,
2.860833406,85.99071503,
2.862499952,86.36458588,
2.864166737,86.74929047,
2.865833282,85.9885788,
2.867500067,85.74401093,
2.869166851,86.17900848,
2.870833397,86.62922668,
2.872500181,86.12529755,
2.874166727,86.44315338,
2.875833273,87.24417114,
2.877500057,85.97802734,
2.879166603,86.05813599,
2.880833387,86.57313538,
2.882499933,86.99524689,
2.884166718,86.50809479,
2.885833502,87.71855164,
2.887500048,85.70995331,
2.889166832,86.78916931,
2.890833378,87.77287292,
2.892500162,85.66361237,
2.894166708,85.71848297,
2.895833254,85.85380554,
2.897500038,86.35823822,
2.899166584,85.99843597,
2.900833368,86.37600708,
2.902500153,86.42754364,
2.904166698,85.72309875,
2.905833483,86.60572052,
2.907500029,86.24887085,
2.909166813,86.64930725,
2.910833597,86.54547119,
2.912499905,85.81729889,
2.914166689,86.59031677,
2.915833235,87.06198883,
2.917500019,86.33358765,
2.919166803,86.28263855,
2.920833349,87.21165466,
2.922500134,86.61144257,
2.924166679,86.83145905,
2.925833464,86.18481445,
2.927500248,86.85155487,
2.929166555,86.97441101,
2.93083334,86.42544556,
2.932499886,85.89792633,
2.93416667,86.41091919,
2.935833454,86.4510498,
2.9375,86.70648193,
2.939166784,85.89686584,
2.94083333,86.35659027,
2.942500114,85.56507874,
2.944166899,85.88847351,
2.945833445,85.53207397,
2.94749999,86.22914886,
2.949166536,86.29254913,
2.950833321,85.85697174,
2.952500105,85.62870789,
2.954166651,85.76729584,
2.955833435,86.28569031,
2.957499981,85.53549957,
2.959166765,85.84050751,
2.960833549,85.90463257,
2.962500095,86.34463501,
2.96416688,86.70001221,
2.965833187,85.99945068,
2.967499971,86.63996124,
2.969166756,85.14201355,
2.970833302,85.90067291,
2.972500086,87.16123962,
2.974166632,87.43435669,
2.975833416,85.98273468,
2.9775002,86.94008636,
2.979166746,85.82378387,
2.98083353,86.79468536,
2.982499838,86.02451324,
2.984166622,86.12088013,
2.985833406,86.43056488,
2.987499952,85.95317078,
2.989166737,86.81485748,
2.990833282,85.75566864,
2.992500067,86.50226593,
2.994166851,86.77489471,
2.995833397,85.85916138,
2.997500181,86.63544464,
2.999166727,86.29779053,
3.000833273,87.35402679,
3.002500057,86.4559021,
3.004166603,86.43386078,
3.005833387,85.81539154,
3.007499933,86.67232513,
3.009166718,87.87062836,
3.010833502,85.87044525,
3.012500048,86.97600555,
3.014166832,86.99935913,
3.015833378,85.5930481,

