1,,
Time (min),Intensity (a.u.),
0.0008333333535,20.59644699,
0.002500000177,20.27764702,
0.004166666884,21.10468674,
0.005833333358,20.43339539,
0.007500000298,20.3962307,
0.009166667238,21.20277977,
0.01083333418,20.99854279,
0.01250000019,20.78558159,
0.01416666713,20.4883728,
0.01583333313,20.27178955,
0.01750000194,20.56556702,
0.01916666701,20.82097626,
0.02083333395,20.89663315,
0.02250000089,20.75136757,
0.02416666783,20.99997711,
0.02583333477,20.50214958,
0.02749999985,20.86733437,
0.02916666679,20.36612701,
0.03083333373,21.013237,
0.03250000253,20.62758064,
0.03416666761,20.46483421,
0.03583333641,20.98449326,
0.03750000149,21.04905891,
0.03916667029,20.59586334,
0.04083333537,20.71464157,
0.04250000045,20.76715851,
0.04416666925,20.44132805,
0.04583333433,20.71880531,
0.04750000313,20.56574821,
0.04916666821,20.53419495,
0.05083333328,20.50276375,
0.05250000209,20.48997879,
0.05416666716,20.76344872,
0.05583333597,20.60064316,
0.05750000104,20.4499588,
0.05916666612,20.81142998,
0.06083333492,20.8894558,
0.0625,20.82284546,
0.06416667253,20.62110329,
0.0658333376,20.41334534,
0.06750000268,20.72629929,
0.06916666776,20.78126335,
0.07083333284,20.59632683,
0.07249999791,20.84813881,
0.07416667044,20.74027061,
0.07583333552,20.83308792,
0.0775000006,20.19713783,
0.07916666567,20.62674332,
0.08083333075,20.73107719,
0.08250000328,20.20010567,
0.08416666836,20.48338699,
0.08583333343,20.3653698,
0.08749999851,20.13175392,
0.08916666359,20.61539268,
0.09083333611,20.36380577,
0.09250000119,20.52834511,
0.09416666627,20.53236389,
0.09583333135,20.13768578,
0.09749999642,20.36994553,
0.09916666895,20.78607559,
0.100833334,20.54646301,
0.1024999991,20.58283424,
0.1041666642,20.51699638,
0.1058333293,20.60489464,
0.1075000018,20.55724525,
0.1091666669,20.73472786,
0.1108333319,20.41823006,
0.112499997,20.7455349,
0.1141666621,20.73100853,
0.1158333346,20.49534988,
0.1174999997,20.36968231,
0.1191666648,20.31546021,
0.1208333299,20.60197067,
0.1224999949,20.66910934,
0.1241666749,20.54478264,
0.1258333325,20.33522606,
0.1274999976,20.6201458,
0.1291666627,20.42384529,
0.1308333278,21.00462151,
0.1325000077,20.7108078,
0.1341666728,20.43243027,
0.1358333379,20.66963959,
0.137500003,20.8149147,
0.1391666681,20.57779312,
0.1408333331,20.77567291,
0.1424999982,20.92627335,
0.1441666782,20.51662636,
0.1458333284,20.46697426,
0.1475000083,20.76992226,
0.1491666585,20.63750267,
0.1508333385,20.63392639,
0.1525000036,20.6926651,
0.1541666687,20.82301712,
0.1558333337,19.94838715,
0.1574999988,20.76139069,
0.1591666639,20.68562698,
0.1608333439,20.59181595,
0.162499994,20.64331818,
0.164166674,21.05786896,
0.1658333242,20.85931587,
0.1675000042,20.44176674,
0.1691666692,20.51257515,
0.1708333343,20.53865051,
0.1724999994,20.4288044,
0.1741666645,20.68733215,
0.1758333296,20.42161942,
0.1775000095,20.17025948,
0.1791666597,20.71709061,
0.1808333397,20.51355553,
0.1824999899,20.35225487,
0.1841666698,20.96048355,
0.1858333498,20.70156288,
0.1875,20.89414787,
0.18916668,20.66054916,
0.1908333302,20.82803535,
0.1925000101,20.81190681,
0.1941666752,20.4894886,
0.1958333403,20.63948631,
0.1975000054,20.60644722,
0.1991666704,20.81962204,
0.2008333355,20.28535843,
0.2025000155,21.15264702,
0.2041666657,20.48417091,
0.2058333457,20.56130981,
0.2074999958,20.80498314,
0.2091666758,20.53557205,
0.2108333409,20.2548027,
0.212500006,20.67794609,
0.214166671,20.63306427,
0.2158333361,20.8901329,
0.2175000012,20.35348701,
0.2191666812,20.95229912,
0.2208333313,20.38962555,
0.2225000113,20.66081238,
0.2241666615,20.923172,
0.2258333415,20.33308792,
0.2275000066,20.66247559,
0.2291666716,20.50539589,
0.2308333367,20.75461578,
0.2325000018,20.56944656,
0.2341666669,20.27383041,
0.2358333468,21.18046379,
0.237499997,21.02094841,
0.239166677,20.71865273,
0.2408333272,20.84492111,
0.2425000072,20.32329369,
0.2441666722,20.77255058,
0.2458333373,20.15692902,
0.2475000024,20.85351181,
0.2491666675,20.66480637,
0.2508333325,20.43048096,
0.2524999976,21.05120087,
0.2541666627,20.2895298,
0.2558333278,20.409729,
0.2574999928,20.34991455,
0.2591666579,20.55176163,
0.2608333528,20.69293213,
0.2624999881,20.4505024,
0.264166683,20.32703972,
0.2658333182,20.35871124,
0.2675000131,20.82605171,
0.2691666484,20.19103241,
0.2708333433,20.46564865,
0.2725000083,20.34386063,
0.2741666734,20.65843964,
0.2758333385,20.40600014,
0.2775000036,20.66467857,
0.2791666687,20.56556702,
0.2808333337,20.40310287,
0.2824999988,20.33518028,
0.2841666937,20.69592094,
0.285833329,20.53557014,
0.287499994,20.94219208,
0.2891666591,20.65132523,
0.290833354,20.40973091,
0.2925000191,20.5914135,
0.2941666543,20.50480652,
0.2958333194,20.34799576,
0.2975000143,20.7830925,
0.2991666794,20.35039139,
0.3008333445,20.37611008,
0.3024999797,20.24112129,
0.3041666746,20.5742054,
0.3058333397,19.98749352,
0.3075000048,20.51097107,
0.3091666996,20.44437599,
0.3108333349,20.22478485,
0.3125,20.182827,
0.3141666651,20.50440025,
0.31583336,20.38676071,
0.317500025,21.00862885,
0.3191666603,20.57296371,
0.3208333254,20.69887543,
0.3225000203,20.41142845,
0.3241666853,20.0427494,
0.3258333504,20.6064949,
0.3274999857,20.61352348,
0.3291666806,20.65112305,
0.3308333457,20.47860909,
0.3325000107,20.57593918,
0.3341666758,20.92988586,
0.3358333409,21.11818314,
0.337500006,20.8477993,
0.339166671,20.63968468,
0.3408333361,20.36738205,
0.342500031,20.85885239,
0.3441666663,20.76265526,
0.3458333313,20.55883026,
0.3474999964,20.53904343,
0.3491666913,20.75616837,
0.3508333564,20.36103439,
0.3524999917,20.7079258,
0.3541666567,20.22860909,
0.3558333516,20.86250687,
0.3575000167,20.84589386,
0.3591666818,20.87480545,
0.360833317,20.83134651,
0.3625000119,20.61812592,
0.364166677,20.38127327,
0.3658333421,20.0828228,
0.3675000072,20.61831093,
0.3691666722,20.80050659,
0.3708333373,20.42313576,
0.3725000024,20.46209335,
0.3741666675,20.61922455,
0.3758333623,20.47911644,
0.3774999976,20.40013695,
0.3791666627,20.65483093,
0.3808333278,20.80335045,
0.3825000226,20.33481979,
0.3841666877,20.51112747,
0.385833323,21.04801559,
0.3874999881,20.69047356,
0.389166683,20.45149994,
0.390833348,20.29140663,
0.3925000131,20.45066261,
0.3941666484,20.4645195,
0.3958333433,20.72935486,
0.3975000083,20.7893219,
0.3991666734,20.47939873,
0.4008333385,20.67090034,
0.4025000036,20.66971779,
0.4041666687,20.46113205,
0.4058333337,20.28215981,
0.4074999988,20.53623009,
0.4091666937,20.46310806,
0.410833329,20.78424263,
0.412499994,20.84724426,
0.4141666591,20.5771389,
0.415833354,20.48650932,
0.4175000191,20.87656593,
0.4191666543,20.55629349,
0.4208333194,20.78558731,
0.4225000143,20.53214264,
0.4241666794,20.70881271,
0.4258333445,20.42487526,
0.4274999797,20.23347664,
0.4291666746,20.47533989,
0.4308333397,21.13284302,
0.4325000048,20.3425045,
0.4341666996,20.75887871,
0.4358333349,20.3991375,
0.4375,20.44832039,
0.4391666651,20.65006828,
0.44083336,20.62851906,
0.442500025,20.41396141,
0.4441666603,20.45764542,
0.4458333254,20.58543587,
0.4475000203,20.80513,
0.4491666853,20.68881989,
0.4508333504,20.42179108,
0.4524999857,21.14297676,
0.4541666806,20.55521393,
0.4558333457,20.67516518,
0.4575000107,20.76683044,
0.4591666758,20.75683975,
0.4608333409,20.74201202,
0.462500006,20.16890526,
0.464166671,20.80863953,
0.4658333361,20.36327934,
0.467500031,20.6314621,
0.4691666663,20.31546783,
0.4708333313,20.28483963,
0.4724999964,20.71630478,
0.4741666913,20.47389793,
0.4758333564,20.57877731,
0.4774999917,20.57070923,
0.4791666567,20.8751812,
0.4808333516,20.37432289,
0.4825000167,20.60958672,
0.4841666818,20.54081345,
0.485833317,20.56407738,
0.4875000119,20.22580338,
0.489166677,20.21176529,
0.4908333421,20.16285133,
0.4925000072,20.54685974,
0.4941666722,21.07201195,
0.4958333373,20.75367546,
0.4975000024,20.61299324,
0.4991666675,20.45741463,
0.5008333325,20.22590637,
0.5024999976,20.47234726,
0.5041666627,20.56061745,
0.5058333278,20.1746006,
0.5074999928,20.5912075,
0.5091666579,20.64161491,
0.510833323,20.4020977,
0.5124999881,20.55029488,
0.5141666532,20.744627,
0.5158333182,20.33428574,
0.5175000429,20.60456467,
0.5191666484,20.89756966,
0.5208333135,20.55339622,
0.5224999785,20.76869965,
0.5241667032,20.64213371,
0.5258333683,20.50352478,
0.5274999738,21.13386536,
0.5291666389,20.45266914,
0.5308333635,20.69231033,
0.5325000286,20.72499466,
0.5341666341,20.50533104,
0.5358333588,20.85521889,
0.5375000238,20.51339149,
0.5391666889,20.23841667,
0.540833354,20.36950874,
0.5424999595,20.45859909,
0.5441666842,20.88624573,
0.5458333492,20.62250328,
0.5475000143,21.00164413,
0.5491666794,20.3965435,
0.5508333445,20.57043266,
0.5525000095,20.62315369,
0.5541666746,20.63390541,
0.5558333993,20.44705582,
0.5575000048,20.68715477,
0.5591666698,20.72178841,
0.5608333349,20.69110489,
0.5625,20.41500473,
0.5641667247,20.73944283,
0.5658333302,20.76095963,
0.5674999952,20.8929615,
0.5691667199,20.78876305,
0.5708333254,20.71077347,
0.5725000501,20.47234726,
0.5741666555,20.74259377,
0.5758333206,20.49231148,
0.5775000453,20.91007614,
0.5791666508,20.65724945,
0.5808333755,20.41646957,
0.5825000405,20.40514946,
0.584166646,20.70040321,
0.5858333707,20.68928909,
0.5874999762,20.79925537,
0.5891667008,20.93766403,
0.5908333659,20.59762383,
0.5924999714,20.40610695,
0.5941666961,20.45158577,
0.5958333611,20.5920887,
0.5975000262,20.60811996,
0.5991666913,21.21684074,
0.6008332968,20.46188354,
0.6025000215,20.83734703,
0.6041666865,20.79762268,
0.6058333516,20.79815483,
0.6075000167,20.59023857,
0.6091666818,20.63744736,
0.6108333468,20.4142189,
0.6125000119,20.1974144,
0.614166677,20.62097549,
0.6158333421,20.39072418,
0.6175000072,20.5912056,
0.6191666722,20.68997765,
0.6208333373,20.68610764,
0.622500062,20.47328949,
0.6241666675,20.66025925,
0.6258333325,20.28190804,
0.6274999976,20.13685036,
0.6291666627,20.81278992,
0.6308333874,20.09420776,
0.6324999928,20.66701317,
0.6341666579,20.28572273,
0.6358333826,20.72738266,
0.6374999881,20.61161613,
0.6391667128,21.25881386,
0.6408333182,20.68491936,
0.6424999833,20.43482018,
0.644166708,20.47554588,
0.6458333135,20.74315453,
0.6475000381,20.45641518,
0.6491667032,20.81064606,
0.6508333087,20.4530735,
0.6525000334,20.89838219,
0.6541666389,20.35287857,
0.6558333635,20.46639442,
0.6575000286,20.89411736,
0.6591666341,20.60340691,
0.6608333588,20.63533974,
0.6625000238,20.32472801,
0.6641666889,20.80637169,
0.665833354,20.16908264,
0.6674999595,20.72495461,
0.6691666842,20.77081871,
0.6708333492,20.57374191,
0.6725000143,20.64302635,
0.6741666794,20.54137993,
0.6758333445,20.37639809,
0.6775000095,20.02665329,
0.6791666746,20.29770851,
0.6808333993,20.48654175,
0.6825000048,20.68222809,
0.6841666698,20.81278992,
0.6858333349,20.30116844,
0.6875,20.70278168,
0.6891667247,20.70264053,
0.6908333302,20.45508194,
0.6924999952,20.68676758,
0.6941667199,20.6251049,
0.6958333254,20.75905418,
0.6975000501,20.26927567,
0.6991666555,20.67651176,
0.7008333206,21.11474037,
0.7025000453,20.78636932,
0.7041666508,20.89217186,
0.7058333755,21.04478836,
0.7075000405,20.74649429,
0.709166646,20.64076805,
0.7108333707,20.42862701,
0.7124999762,20.41446877,
0.7141667008,20.36013031,
0.7158333659,20.39001274,
0.7174999714,20.60885239,
0.7191666961,20.98926544,
0.7208333611,20.20058823,
0.7225000262,20.75126648,
0.7241666913,20.43722534,
0.7258332968,20.72191238,
0.7275000215,20.96528816,
0.7291666865,20.40349388,
0.7308333516,20.47014236,
0.7325000167,20.82429123,
0.7341666818,20.35926056,
0.7358333468,20.57788849,
0.7375000119,20.72005272,
0.739166677,20.37955093,
0.7408333421,21.02081108,
0.7425000072,20.3986969,
0.7441666722,20.52926445,
0.7458333373,20.80191994,
0.747500062,20.38895226,
0.7491666675,20.55909348,
0.7508333325,20.75248337,
0.7524999976,20.18416214,
0.7541666627,20.63798904,
0.7558333874,20.67323303,
0.7574999928,20.51411247,
0.7591666579,20.70405769,
0.7608333826,20.42307854,
0.7624999881,20.54851532,
0.7641667128,20.51085663,
0.7658333182,20.57822418,
0.7674999833,20.67335701,
0.769166708,20.64469528,
0.7708333135,20.60428238,
0.7725000381,20.92680931,
0.7741667032,20.4577198,
0.7758333087,20.45068169,
0.7775000334,20.6166172,
0.7791666389,20.79961205,
0.7808333635,20.73674202,
0.7825000286,20.78450966,
0.7841666341,20.50803947,
0.7858333588,20.4362545,
0.7875000238,20.98272514,
0.7891666889,20.40179062,
0.790833354,20.72398376,
0.7924999595,20.25509834,
0.7941666842,20.40092659,
0.7958333492,20.69447517,
0.7975000143,20.38723946,
0.7991666794,20.48394012,
0.8008333445,20.95119286,
0.8025000095,20.60996628,
0.8041666746,20.90657997,
0.8058333993,20.62446022,
0.8075000048,20.93053436,
0.8091666698,20.3910656,
0.8108333349,20.82755089,
0.8125,20.50515938,
0.8141667247,20.87056923,
0.8158333302,20.52568054,
0.8174999952,20.7630558,
0.8191667199,20.4109745,
0.8208333254,20.32320213,
0.8225000501,20.89003944,
0.8241666555,20.41586304,
0.8258333206,20.26561928,
0.8275000453,20.56951904,
0.8291666508,20.84807587,
0.8308333755,20.47839737,
0.8325000405,20.43986511,
0.834166646,20.71813393,
0.8358333707,20.82242966,
0.8374999762,20.42280769,
0.8391667008,20.30349731,
0.8408333659,20.5043087,
0.8424999714,20.82466125,
0.8441666961,20.39764786,
0.8458333611,20.89091492,
0.8475000262,20.77337837,
0.8491666913,20.55047989,
0.8508332968,20.24074364,
0.8525000215,20.93374062,
0.8541666865,21.00695419,
0.8558333516,20.55521393,
0.8575000167,20.63855553,
0.8591666818,20.45928383,
0.8608333468,20.54918671,
0.8625000119,20.55170059,
0.864166677,20.67601776,
0.8658333421,20.62895584,
0.8675000072,20.43811989,
0.8691666722,20.42933464,
0.8708333373,20.43606377,
0.872500062,20.59684753,
0.8741666675,20.86098099,
0.8758333325,20.38265038,
0.8774999976,20.45112228,
0.8791666627,20.7578907,
0.8808333874,20.5025177,
0.8824999928,20.58839226,
0.8841666579,20.61683273,
0.8858333826,20.68419838,
0.8874999881,20.38093567,
0.8891667128,20.57826805,
0.8908333182,20.13708305,
0.8924999833,21.06082535,
0.894166708,20.95804977,
0.8958333135,20.43745232,
0.8975000381,20.2376461,
0.8991667032,20.87572861,
0.9008333087,20.57661629,
0.9025000334,20.52108765,
0.9041666389,20.73458672,
0.9058333635,20.40089798,
0.9075000286,20.48496246,
0.9091666341,20.6933918,
0.9108333588,20.64217377,
0.9125000238,20.24529266,
0.9141666889,20.5187645,
0.915833354,20.83483696,
0.9174999595,20.43099976,
0.9191666842,20.23075867,
0.9208333492,20.50025368,
0.9225000143,20.34208679,
0.9241666794,20.86842728,
0.9258333445,20.57639885,
0.9275000095,20.85077667,
0.9291666746,20.91962814,
0.9308333993,20.68953133,
0.9325000048,20.85552597,
0.9341666698,20.58955193,
0.9358333349,20.56445122,
0.9375,20.4484272,
0.9391667247,20.9422226,
0.9408333302,20.63613129,
0.9424999952,21.03990364,
0.9441667199,20.47548294,
0.9458333254,20.77544785,
0.9475000501,20.52799797,
0.9491666555,20.60128784,
0.9508333206,20.02868843,
0.9525000453,20.86639404,
0.9541666508,20.36613083,
0.9558333755,20.52580452,
0.9575000405,20.96238327,
0.959166646,20.39448547,
0.9608333707,20.22679329,
0.9624999762,20.56631088,
0.9641667008,20.23340416,
0.9658333659,20.57316971,
0.9674999714,20.59542274,
0.9691666961,20.50185013,
0.9708333611,20.53437996,
0.9725000262,20.83926201,
0.9741666913,20.81967163,
0.9758332968,20.74146271,
0.9775000215,20.62161636,
0.9791666865,20.23854065,
0.9808333516,20.63797569,
0.9825000167,20.31085014,
0.9841666818,20.42503738,
0.9858333468,20.18151283,
0.9875000119,20.58935928,
0.989166677,20.60360909,
0.9908333421,21.07082939,
0.9925000072,20.52361488,
0.9941666722,20.73808479,
0.9958333373,20.35070229,
0.997500062,20.72221184,
0.9991666675,20.54578972,
1.000833273,20.56141281,
1.002500057,20.95981598,
1.004166722,20.54930115,
1.005833387,21.16101074,
1.007500052,20.64042854,
1.009166598,20.73272705,
1.010833383,20.38916206,
1.012500048,20.94795609,
1.014166713,20.87362671,
1.015833378,21.07987976,
1.017500043,20.64940643,
1.019166708,20.47710991,
1.020833373,20.73558617,
1.022500038,20.65466499,
1.024166703,20.76190376,
1.025833368,20.60603142,
1.027500033,20.62110519,
1.029166698,21.02985001,
1.030833364,20.25752258,
1.032500029,20.49835968,
1.034166694,20.38612556,
1.035833359,20.09857368,
1.037500024,20.65840912,
1.039166689,21.69313431,
1.040833354,21.08746338,
1.042500019,20.9796772,
1.044166684,21.35131073,
1.045833349,21.14199638,
1.047500014,22.12812424,
1.049166679,21.60659218,
1.050833344,22.366642,
1.05250001,21.63864326,
1.054166675,21.51807594,
1.05583334,21.4642849,
1.057500005,22.05242729,
1.05916667,21.30091667,
1.060833335,22.11167145,
1.0625,23.93515587,
1.064166665,22.35912132,
1.06583333,20.78020287,
1.067499995,20.80958748,
1.06916666,20.64872551,
1.070833325,20.65756607,
1.07249999,20.13064384,
1.074166775,20.51239777,
1.07583344,20.43319511,
1.077499986,20.59636116,
1.079166651,20.64833069,
1.080833316,20.11322403,
1.0825001,20.27425003,
1.084166765,20.46541405,
1.085833311,20.38959885,
1.087499976,20.37730026,
1.089166641,19.92635536,
1.090833426,20.50108528,
1.092500091,20.26607132,
1.094166636,20.21039963,
1.095833302,20.48283386,
1.097499967,20.18425751,
1.099166751,20.50601387,
1.100833416,19.79553795,
1.102500081,20.32284737,
1.104166627,20.30408478,
1.105833292,20.54433632,
1.107500076,20.08620453,
1.109166741,20.01160812,
1.110833406,20.35147095,
1.112499952,19.8391037,
1.114166617,20.27507591,
1.115833402,20.06250954,
1.117500067,19.98059082,
1.119166732,20.55203056,
1.120833278,20.13724899,
1.122499943,19.75190735,
1.124166727,20.34461594,
1.125833392,19.83751678,
1.127500057,19.77161407,
1.129166722,19.97944832,
1.130833268,19.97592354,
1.132500052,20.08167839,
1.134166718,19.83826065,
1.135833383,19.9931221,
1.137500048,19.77153587,
1.139166594,19.99501419,
1.140833378,19.68085861,
1.142500043,19.68837166,
1.144166708,19.88485909,
1.145833373,19.69370651,
1.147499919,19.68993759,
1.149166703,19.88249779,
1.150833368,19.54354858,
1.152500033,19.80085564,
1.154166698,19.62689018,
1.155833364,20.14788628,
1.157500029,19.62974358,
1.159166694,19.75347519,
1.160833359,20.15453339,
1.162500024,20.12176323,
1.164166689,19.37493706,
1.165833354,19.48247719,
1.167500019,19.9587822,
1.169166684,19.55052185,
1.170833349,19.31216049,
1.172500014,19.874403,
1.174166799,19.92495728,
1.175833344,19.51866913,
1.17750001,19.72686005,
1.179166675,19.84958267,
1.18083334,19.64045334,
1.182500124,19.46231651,
1.18416667,19.60691452,
1.185833335,19.55401611,
1.1875,19.2736721,
1.189166665,18.94442368,
1.190833449,19.90442085,
1.192499995,19.19447327,
1.19416666,19.66932678,
1.195833325,19.48013306,
1.19749999,19.44587517,
1.199166775,19.06225014,
1.20083344,19.64534187,
1.202499986,19.34661102,
1.204166651,19.56229782,
1.205833316,19.46793365,
1.2075001,19.7555275,
1.209166765,19.33726501,
1.210833311,19.05535126,
1.212499976,19.49403381,
1.214166641,19.25544739,
1.215833426,19.46799469,
1.217500091,19.24559593,
1.219166636,19.67338753,
1.220833302,19.50251961,
1.222499967,19.17881012,
1.224166751,19.43123627,
1.225833416,19.48216057,
1.227500081,19.1580162,
1.229166627,18.92735291,
1.230833292,19.17353249,
1.232500076,18.99041557,
1.234166741,19.57813263,
1.235833406,19.16303444,
1.237499952,19.16618156,
1.239166617,18.93980217,
1.240833402,19.25212097,
1.242500067,19.14622879,
1.244166732,19.09353447,
1.245833278,18.91399765,
1.247499943,19.27097702,
1.249166727,19.29285049,
1.250833392,18.99734306,
1.252500057,19.49436951,
1.254166722,18.99572182,
1.255833268,19.1184597,
1.257500052,19.75213623,
1.259166718,19.01727486,
1.260833383,19.01113319,
1.262500048,18.87168694,
1.264166594,18.52388191,
1.265833378,18.94213295,
1.267500043,18.79314423,
1.269166708,18.84756279,
1.270833373,18.7131958,
1.272499919,19.36530876,
1.274166703,19.40523148,
1.275833368,19.03967094,
1.277500033,18.94446182,
1.279166698,19.20841217,
1.280833364,18.71834946,
1.282500029,19.11480141,
1.284166694,19.36870575,
1.285833359,19.21552467,
1.287500024,19.27027702,
1.289166689,18.91388512,
1.290833354,18.62469292,
1.292500019,18.99132347,
1.294166684,18.42404747,
1.295833349,18.58815384,
1.297500014,18.70039368,
1.299166799,18.89843178,
1.300833344,18.74367714,
1.30250001,18.75595093,
1.304166675,18.81669235,
1.30583334,18.84612274,
1.307500124,18.79888153,
1.30916667,18.92831612,
1.310833335,19.24336624,
1.3125,19.03142929,
1.314166665,18.6741848,
1.315833449,18.92563057,
1.317499995,18.50317764,
1.31916666,18.62749672,
1.320833325,18.6082859,
1.32249999,18.3910408,
1.324166775,18.43232727,
1.32583344,18.91922569,
1.327499986,18.78877449,
1.329166651,18.465868,
1.330833316,18.82144928,
1.3325001,18.84222984,
1.334166765,18.61881638,
1.335833311,18.62465096,
1.337499976,18.69449043,
1.339166641,18.61982918,
1.340833426,18.6776619,
1.342500091,18.84735489,
1.344166636,18.7735939,
1.345833302,18.52266312,
1.347499967,18.37852669,
1.349166751,18.73163605,
1.350833416,18.28947639,
1.352500081,18.69676018,
1.354166627,18.40721321,
1.355833292,18.92019844,
1.357500076,18.76630783,
1.359166741,18.36101532,
1.360833406,18.17516708,
1.362499952,18.69549561,
1.364166617,18.58521271,
1.365833402,18.17051125,
1.367500067,18.63712311,
1.369166732,18.7958889,
1.370833278,18.08756065,
1.372499943,18.70469284,
1.374166727,18.83551407,
1.375833392,18.46529579,
1.377500057,18.64617538,
1.379166722,18.1090107,
1.380833268,18.10419464,
1.382500052,18.47466469,
1.384166718,18.15195656,
1.385833383,18.18951797,
1.387500048,18.59946442,
1.389166594,18.45793343,
1.390833378,18.23903084,
1.392500043,18.43348122,
1.394166708,18.51644325,
1.395833373,18.12783051,
1.397499919,18.51491356,
1.399166703,18.62771225,
1.400833368,18.18901825,
1.402500033,18.18342972,
1.404166698,18.30308342,
1.405833364,18.56233215,
1.407500029,18.55423546,
1.409166694,18.20203972,
1.410833359,18.94547272,
1.412500024,18.26963997,
1.414166689,18.52663612,
1.415833354,18.57632637,
1.417500019,18.33041954,
1.419166684,18.4934597,
1.420833349,18.37837791,
1.422500014,18.42481613,
1.424166799,18.31271553,
1.425833344,18.24356651,
1.42750001,18.7368679,
1.429166675,18.17048836,
1.43083334,18.24431992,
1.432500124,18.33498383,
1.43416667,18.52795601,
1.435833335,18.09456444,
1.4375,18.25252724,
1.439166665,18.26763535,
1.440833449,18.05933952,
1.442499995,18.47265244,
1.44416666,18.11438179,
1.445833325,18.16856956,
1.44749999,18.26904678,
1.449166775,18.07694244,
1.45083344,18.24202538,
1.452499986,18.2552681,
1.454166651,18.01125336,
1.455833316,18.05249023,
1.4575001,18.21476364,
1.459166765,18.26311874,
1.460833311,18.16245651,
1.462499976,18.33661461,
1.464166641,17.92076683,
1.465833426,18.36792374,
1.467500091,18.24033165,
1.469166636,17.88621712,
1.470833302,17.41848564,
1.472499967,18.07094574,
1.474166751,18.04240227,
1.475833416,18.25444603,
1.477500081,17.91580963,
1.479166627,17.95183182,
1.480833292,18.35695648,
1.482500076,18.15128517,
1.484166741,17.77684784,
1.485833406,17.65676308,
1.487499952,17.75228882,
1.489166617,18.05953026,
1.490833402,18.008461,
1.492500067,17.72046089,
1.494166732,18.0888443,
1.495833278,18.28529739,
1.497499943,18.01679039,
1.499166727,17.95651436,
1.500833392,17.89824677,
1.502500057,17.8392334,
1.504166722,17.97967148,
1.505833268,17.86517525,
1.507500052,18.08286667,
1.509166718,17.73413849,
1.510833383,17.98862076,
1.512500048,18.00925636,
1.514166594,17.78874397,
1.515833378,18.49211693,
1.517500043,18.09565353,
1.519166708,17.81820107,
1.520833373,18.03405952,
1.522499919,17.64186478,
1.524166703,17.95402145,
1.525833368,17.84528542,
1.527500033,17.6985836,
1.529166698,17.96729469,
1.530833364,17.48513794,
1.532500029,17.72637558,
1.534166694,18.09033966,
1.535833359,17.96803284,
1.537500024,17.91137695,
1.539166689,17.84821129,
1.540833354,17.7652092,
1.542500019,18.25271606,
1.544166684,18.14613914,
1.545833349,18.10365677,
1.547500014,18.0952549,
1.549166799,17.89934349,
1.550833344,17.63526535,
1.55250001,17.61258125,
1.554166675,17.52659225,
1.55583334,17.84745598,
1.557500124,18.13005447,
1.55916667,17.75977135,
1.560833335,17.84207153,
1.5625,17.70134163,
1.564166665,17.64691925,
1.565833449,17.68003082,
1.567499995,17.62625122,
1.56916666,17.90179253,
1.570833325,17.7028656,
1.57249999,17.76023674,
1.574166775,17.85479736,
1.57583344,17.76652718,
1.577499986,17.61062813,
1.579166651,17.70174599,
1.580833316,17.43145943,
1.5825001,17.38623238,
1.584166765,17.50284195,
1.585833311,18.17190933,
1.587499976,17.82393837,
1.589166641,17.4474926,
1.590833426,17.65179062,
1.592500091,17.69827652,
1.594166636,18.05660248,
1.595833302,17.82967377,
1.597499967,17.65498543,
1.599166751,18.19471931,
1.600833416,18.12226868,
1.602500081,18.1013298,
1.604166627,17.70763016,
1.605833292,17.4995842,
1.607500076,17.62471771,
1.609166741,17.6422863,
1.610833406,17.31560516,
1.612499952,17.46479797,
1.614166617,17.79662514,
1.615833402,17.56473351,
1.617500067,17.34028625,
1.619166732,18.08601761,
1.620833278,17.81054688,
1.622499943,17.56108475,
1.624166727,17.60831642,
1.625833392,17.86009979,
1.627500057,17.68063354,
1.629166722,17.35731506,
1.630833268,17.48352623,
1.632500052,16.94205856,
1.634166718,17.6928196,
1.635833383,18.16914558,
1.637500048,17.82305717,
1.639166594,17.73334312,
1.640833378,17.42889977,
1.642500043,17.76306915,
1.644166708,17.35796165,
1.645833373,17.55760574,
1.647499919,17.43344688,
1.649166703,17.72117424,
1.650833368,17.73659515,
1.652500033,17.79600525,
1.654166698,17.5620327,
1.655833364,17.61196899,
1.657500029,17.46627808,
1.659166694,17.44400597,
1.660833359,17.8447094,
1.662500024,17.67758369,
1.664166689,18.02800941,
1.665833354,17.59347153,
1.667500019,17.59921837,
1.669166684,17.65234375,
1.670833349,17.75614929,
1.672500014,17.65288353,
1.674166799,17.55838394,
1.675833344,17.47317505,
1.67750001,17.54385948,
1.679166675,17.67892456,
1.68083334,17.38431358,
1.682500124,17.62660789,
1.68416667,17.6455574,
1.685833335,17.80993843,
1.6875,17.45448685,
1.689166665,17.50429153,
1.690833449,17.43574333,
1.692499995,17.68185425,
1.69416666,17.67574501,
1.695833325,17.43255424,
1.69749999,17.57111359,
1.699166775,17.37215614,
1.70083344,17.37052536,
1.702499986,17.76847649,
1.704166651,17.23544884,
1.705833316,17.64997864,
1.7075001,17.37125778,
1.709166765,17.52308273,
1.710833311,17.26678848,
1.712499976,17.35326958,
1.714166641,17.29060745,
1.715833426,17.07778931,
1.717500091,17.72291565,
1.719166636,17.1354084,
1.720833302,17.09774399,
1.722499967,17.62603378,
1.724166751,17.65155983,
1.725833416,17.60080338,
1.727500081,17.62213707,
1.729166627,17.38517952,
1.730833292,17.67699623,
1.732500076,17.25416756,
1.734166741,17.87086678,
1.735833406,17.2969532,
1.737499952,17.06019783,
1.739166617,17.46505356,
1.740833402,17.49751282,
1.742500067,17.35472298,
1.744166732,17.37194824,
1.745833278,17.57482719,
1.747499943,17.2797718,
1.749166727,17.64347267,
1.750833392,17.4068222,
1.752500057,17.51138115,
1.754166722,17.30574417,
1.755833268,17.26198387,
1.757500052,17.47619438,
1.759166718,17.51021004,
1.760833383,17.0663166,
1.762500048,17.01373672,
1.764166594,17.22460365,
1.765833378,17.06266594,
1.767500043,17.32599068,
1.769166708,17.3381176,
1.770833373,17.37420654,
1.772499919,17.55511856,
1.774166703,17.11245155,
1.775833368,17.91499901,
1.777500033,17.34356689,
1.779166698,17.1802063,
1.780833364,17.2966423,
1.782500029,17.02695847,
1.784166694,17.13282585,
1.785833359,17.00885963,
1.787500024,17.09265327,
1.789166689,17.36569405,
1.790833354,17.21251106,
1.792500019,17.12893105,
1.794166684,17.20551682,
1.795833349,17.34183502,
1.797500014,17.43101883,
1.799166799,17.08758926,
1.800833344,17.43886948,
1.80250001,17.0303936,
1.804166675,17.50696945,
1.80583334,17.3329277,
1.807500124,17.52314568,
1.80916667,17.22113037,
1.810833335,17.31518936,
1.8125,17.56677628,
1.814166665,17.25889587,
1.815833449,16.98541641,
1.817499995,17.02687263,
1.81916666,17.43625832,
1.820833325,16.96517754,
1.82249999,17.15877724,
1.824166775,17.55879021,
1.82583344,17.1846962,
1.827499986,17.36902428,
1.829166651,17.63906097,
1.830833316,17.03249741,
1.8325001,17.10714531,
1.834166765,17.06828499,
1.835833311,17.38301659,
1.837499976,17.08228493,
1.839166641,17.29288101,
1.840833426,16.95515251,
1.842500091,17.0792675,
1.844166636,17.39660835,
1.845833302,17.06773949,
1.847499967,17.29589081,
1.849166751,17.2194519,
1.850833416,16.96164322,
1.852500081,17.49025154,
1.854166627,17.2973423,
1.855833292,17.06248856,
1.857500076,17.17336845,
1.859166741,17.29879951,
1.860833406,17.34183502,
1.862499952,17.25078773,
1.864166617,17.42308617,
1.865833402,17.40863419,
1.867500067,17.28957748,
1.869166732,17.19375038,
1.870833278,16.87666702,
1.872499943,16.99902725,
1.874166727,17.00033379,
1.875833392,17.17700577,
1.877500057,17.50484848,
1.879166722,16.96365929,
1.880833268,16.92666626,
1.882500052,16.90294838,
1.884166718,17.40952873,
1.885833383,17.2534008,
1.887500048,17.42380142,
1.889166594,16.92510796,
1.890833378,17.26443481,
1.892500043,17.22868919,
1.894166708,17.06243324,
1.895833373,16.96061897,
1.897499919,16.97689819,
1.899166703,17.08504486,
1.900833368,17.06358147,
1.902500033,17.25139236,
1.904166698,17.13542747,
1.905833364,17.22868919,
1.907500029,17.12507439,
1.909166694,17.32048035,
1.910833359,17.3494091,
1.912500024,17.01224518,
1.914166689,17.13138962,
1.915833354,17.43319893,
1.917500019,17.21604156,
1.919166684,17.38116646,
1.920833349,17.02493095,
1.922500014,17.09791374,
1.924166799,17.18330956,
1.925833344,16.9923439,
1.92750001,17.0182724,
1.929166675,16.94925308,
1.93083334,17.00837898,
1.932500124,17.20626831,
1.93416667,16.90026093,
1.935833335,17.12285423,
1.9375,16.64050865,
1.939166665,17.26530266,
1.940833449,16.96331787,
1.942499995,16.97627831,
1.94416666,17.35078621,
1.945833325,17.20104599,
1.94749999,16.88266754,
1.949166775,17.39192772,
1.95083344,16.89987373,
1.952499986,17.12267876,
1.954166651,17.37984085,
1.955833316,17.28392029,
1.9575001,16.9632206,
1.959166765,17.2833004,
1.960833311,17.12107849,
1.962499976,17.02917099,
1.964166641,17.13181114,
1.965833426,17.16077995,
1.967500091,16.99500084,
1.969166636,17.28166389,
1.970833302,17.22239876,
1.972499967,17.03992271,
1.974166751,17.02937317,
1.975833416,17.26136208,
1.977500081,16.85858727,
1.979166627,16.77848434,
1.980833292,17.09598923,
1.982500076,16.9656601,
1.984166741,17.1993103,
1.985833406,17.103405,
1.987499952,17.04835892,
1.989166617,17.12586403,
1.990833402,17.20211601,
1.992500067,17.11899948,
1.994166732,16.86898422,
1.995833278,16.69573402,
1.997499943,17.01131248,
1.999166727,16.82420349,
2.000833273,16.74393845,
2.002500057,17.10588455,
2.004166603,16.91241264,
2.005833387,17.23017311,
2.007500172,17.0196228,
2.009166718,16.7943306,
2.010833263,17.50932884,
2.012500048,16.95581818,
2.014166594,16.95757866,
2.015833378,16.99020576,
2.017500162,16.71199417,
2.019166708,16.99538422,
2.020833254,16.50631332,
2.022500038,17.00463295,
2.024166822,16.90903854,
2.025833368,17.25541306,
2.027499914,17.13500404,
2.029166698,16.77759552,
2.030833244,16.70749855,
2.032500029,16.62641525,
2.034166813,16.93514633,
2.035833359,17.01691818,
2.037499905,16.70923233,
2.039166689,16.91740608,
2.040833473,16.51441574,
2.042500019,17.18960762,
2.044166803,17.2562294,
2.045833349,17.21719933,
2.047499895,17.05246162,
2.049166679,16.84767723,
2.050833464,17.14686775,
2.05250001,17.1404705,
2.054166555,17.09366226,
2.05583334,16.95253372,
2.057500124,16.91117287,
2.05916667,16.87593842,
2.060833454,16.79315758,
2.0625,17.16116905,
2.064166546,16.42197037,
2.06583333,16.85046196,
2.067500114,16.55310249,
2.06916666,16.93905449,
2.070833445,16.9937706,
2.07249999,17.0358963,
2.074166775,16.53537369,
2.075833321,17.09978867,
2.077500105,16.80477715,
2.079166651,16.95526314,
2.080833197,17.20654488,
2.082499981,16.49441147,
2.084166765,17.18956757,
2.085833311,16.8500061,
2.087500095,17.22621155,
2.089166641,17.13957596,
2.090833426,16.89333534,
2.092499971,16.58196831,
2.094166756,17.12135506,
2.095833302,16.97123146,
2.097500086,17.0401268,
2.099166632,16.61635017,
2.100833416,16.70905495,
2.102499962,16.89501572,
2.104166746,17.35657883,
2.105833292,16.75494766,
2.107500076,17.19200897,
2.109166622,17.2285881,
2.110833406,17.08364868,
2.112499952,16.98075676,
2.114166737,16.84547615,
2.115833521,17.03943443,
2.117500067,16.54781342,
2.119166613,17.09830284,
2.120833397,16.77935028,
2.122499943,16.88472366,
2.124166727,16.64569092,
2.125833273,17.21639824,
2.127500057,17.01651382,
2.129166603,17.0189724,
2.130833387,17.00682259,
2.132500172,16.93926239,
2.134166718,16.36724281,
2.135833502,16.7068634,
2.137500048,16.84495163,
2.139166832,17.00749969,
2.140833378,16.93168068,
2.142500162,16.57918167,
2.144166708,16.45376968,
2.145833254,16.90410423,
2.147500038,16.67367363,
2.149166584,16.65931892,
2.150833368,17.0181694,
2.152500153,16.8136673,
2.154166698,16.64943123,
2.155833483,17.0871582,
2.157500029,16.66128349,
2.159166813,16.96477318,
2.160833597,16.52858734,
2.162499905,16.83202744,
2.164166689,16.75422478,
2.165833235,16.68954849,
2.167500019,16.86244011,
2.169166803,16.42389107,
2.170833349,16.95772934,
2.172500134,16.82834816,
2.174166679,17.17000008,
2.175833464,16.8234539,
2.177500248,16.77738953,
2.179166555,16.80259132,
2.18083334,17.02015305,
2.182499886,16.79454994,
2.18416667,16.52504921,
2.185833454,16.90281296,
2.1875,16.80187607,
2.189166784,16.86530685,
2.19083333,16.6535244,
2.192500114,16.99784088,
2.194166899,16.72767448,
2.195833445,17.06367302,
2.19749999,16.92618561,
2.199166536,16.64783287,
2.200833321,16.58690071,
2.202500105,16.80285454,
2.204166651,16.42758179,
2.205833435,16.58642197,
2.207499981,16.59861374,
2.209166765,16.5728302,
2.210833549,16.71355247,
2.212500095,17.03151512,
2.21416688,16.5116024,
2.215833187,16.80747414,
2.217499971,16.71988678,
2.219166756,16.51103401,
2.220833302,16.75931549,
2.222500086,16.79670143,
2.224166632,16.57022476,
2.225833416,16.84807587,
2.2275002,16.85832977,
2.229166746,16.71405602,
2.23083353,16.1878624,
2.232499838,16.87301064,
2.234166622,16.6541481,
2.235833406,17.14158058,
2.237499952,16.80286026,
2.239166737,16.70146179,
2.240833282,16.50708199,
2.242500067,16.45640945,
2.244166851,16.75133705,
2.245833397,17.11792374,
2.247500181,16.62293816,
2.249166727,16.57715225,
2.250833273,16.79716873,
2.252500057,16.55531883,
2.254166603,16.7345314,
2.255833387,16.76323891,
2.257499933,16.56149101,
2.259166718,17.14565849,
2.260833502,16.86799049,
2.262500048,16.66558266,
2.264166832,16.47430038,
2.265833378,16.67276764,
2.267500162,16.91793633,
2.269166708,16.42041969,
2.270833254,16.65567398,
2.272500038,16.33272934,
2.274166584,16.5129528,
2.275833368,16.45958138,
2.277500153,16.79209137,
2.279166698,16.62574196,
2.280833483,16.76631355,
2.282500029,16.64453316,
2.284166813,16.1533432,
2.285833597,16.66706467,
2.287499905,16.73917961,
2.289166689,16.2279892,
2.290833235,17.17608261,
2.292500019,16.72399712,
2.294166803,16.61444473,
2.295833349,16.54284096,
2.297500134,16.47079468,
2.299166679,16.70904922,
2.300833464,16.70150948,
2.302500248,16.7955265,
2.304166555,16.6354332,
2.30583334,16.58869553,
2.307499886,16.66004753,
2.30916667,16.71769142,
2.310833454,16.71449852,
2.3125,16.877388,
2.314166784,17.00067711,
2.31583333,16.47315025,
2.317500114,17.08080101,
2.319166899,16.5420742,
2.320833445,16.62595177,
2.32249999,16.61712646,
2.324166536,16.88503838,
2.325833321,16.89145088,
2.327500105,16.65644836,
2.329166651,16.4212513,
2.330833435,16.70674133,
2.332499981,16.71827316,
2.334166765,16.63998222,
2.335833549,16.93797112,
2.337500095,16.68050766,
2.33916688,16.69477272,
2.340833187,16.71686172,
2.342499971,16.48626518,
2.344166756,17.05410004,
2.345833302,16.65597343,
2.347500086,16.25649452,
2.349166632,16.51780701,
2.350833416,16.91060257,
2.3525002,16.57307053,
2.354166746,16.72132683,
2.35583353,16.57841301,
2.357499838,16.67365837,
2.359166622,16.70457268,
2.360833406,16.65996933,
2.362499952,16.57118416,
2.364166737,16.63840294,
2.365833282,16.35658646,
2.367500067,16.84436989,
2.369166851,16.55905724,
2.370833397,16.45447922,
2.372500181,16.66755486,
2.374166727,16.75355148,
2.375833273,16.89235497,
2.377500057,16.46056175,
2.379166603,16.39886856,
2.380833387,16.7825737,
2.382499933,16.83600235,
2.384166718,16.68053246,
2.385833502,16.69148254,
2.387500048,16.41337776,
2.389166832,16.89370346,
2.390833378,16.95362473,
2.392500162,16.36655235,
2.394166708,17.02496147,
2.395833254,16.84500504,
2.397500038,16.36155128,
2.399166584,16.25457954,
2.400833368,16.74074554,
2.402500153,16.5670929,
2.404166698,16.47912407,
2.405833483,16.57876778,
2.407500029,16.59445,
2.409166813,16.75233269,
2.410833597,16.93412399,
2.412499905,16.46686363,
2.414166689,16.7409153,
2.415833235,16.59883118,
2.417500019,16.85386467,
2.419166803,16.475214,
2.420833349,16.46490288,
2.422500134,16.45452881,
2.424166679,16.82566071,
2.425833464,16.48866844,
2.427500248,16.84863853,
2.429166555,16.82854462,
2.43083334,16.67650414,
2.432499886,16.72286034,
2.43416667,16.38298225,
2.435833454,16.65278435,
2.4375,16.63339424,
2.439166784,16.44838524,
2.44083333,16.28326035,
2.442500114,16.83245468,
2.444166899,16.82377052,
2.445833445,16.84092331,
2.44749999,16.7908268,
2.449166536,16.57219887,
2.450833321,16.50355339,
2.452500105,16.67429352,
2.454166651,16.28209877,
2.455833435,16.73903847,
2.457499981,16.55607605,
2.459166765,16.29745865,
2.460833549,16.40975952,
2.462500095,17.11678314,
2.46416688,16.02192307,
2.465833187,16.50363541,
2.467499971,16.89241028,
2.469166756,16.53243446,
2.470833302,16.58303261,
2.472500086,16.47464752,
2.474166632,16.56574631,
2.475833416,16.47856522,
2.4775002,16.6928196,
2.479166746,16.68527794,
2.48083353,16.91518021,
2.482499838,16.36106873,
2.484166622,16.81090164,
2.485833406,16.47276688,
2.487499952,16.73079491,
2.489166737,16.64094162,
2.490833282,16.58780098,
2.492500067,16.54085732,
2.494166851,16.58611298,
2.495833397,16.85639763,
2.497500181,16.46902657,
2.499166727,16.58552361,
2.500833273,16.63324165,
2.502500057,16.16117668,
2.504166603,16.22764397,
2.505833387,16.44627953,
2.507499933,16.95712471,
2.509166718,16.86403465,
2.510833502,16.75850868,
2.512500048,16.0542469,
2.514166832,16.24479866,
2.515833378,16.46525383,
2.517500162,16.53623581,
2.519166708,17.09508324,
2.520833254,16.4108696,
2.522500038,16.41722488,
2.524166584,16.44097328,
2.525833368,16.70547485,
2.527500153,16.59711838,
2.529166698,17.16551971,
2.530833483,16.97418213,
2.532500029,16.71312332,
2.534166813,16.46037483,
2.535833597,16.1370182,
2.537499905,16.39019012,
2.539166689,16.22200012,
2.540833235,16.47210121,
2.542500019,16.14341354,
2.544166803,16.63634491,
2.545833349,16.40358162,
2.547500134,16.15025902,
2.549166679,16.25821114,
2.550833464,16.38972282,
2.552500248,16.77548981,
2.554166555,16.2885704,
2.55583334,17.03326225,
2.557499886,16.44702339,
2.55916667,16.60845757,
2.560833454,16.29161263,
2.5625,16.25505447,
2.564166784,16.53378677,
2.56583333,16.49254417,
2.567500114,16.41631126,
2.569166899,16.27981567,
2.570833445,16.54354858,
2.57249999,16.94651413,
2.574166536,16.40700912,
2.575833321,16.47948456,
2.577500105,16.82317924,
2.579166651,16.3470974,
2.580833435,16.43884087,
2.582499981,16.18679619,
2.584166765,16.7012043,
2.585833549,16.57491493,
2.587500095,16.5059967,
2.58916688,16.43029213,
2.590833187,16.65634155,
2.592499971,16.21631241,
2.594166756,16.52772522,
2.595833302,16.28850555,
2.597500086,16.85353279,
2.599166632,16.84794617,
2.600833416,16.67816544,
2.6025002,16.9512291,
2.604166746,16.12800217,
2.60583353,16.9439888,
2.607499838,16.54034805,
2.609166622,16.22014999,
2.610833406,16.45534134,
2.612499952,16.87669754,
2.614166737,16.6933403,
2.615833282,16.19896507,
2.617500067,16.62162399,
2.619166851,16.40864372,
2.620833397,16.40214348,
2.622500181,16.24025536,
2.624166727,16.4060936,
2.625833273,16.36093521,
2.627500057,16.34796524,
2.629166603,16.61226082,
2.630833387,16.34505081,
2.632499933,16.22709656,
2.634166718,16.4850502,
2.635833502,16.55713272,
2.637500048,16.44921303,
2.639166832,16.57605362,
2.640833378,16.86442184,
2.642500162,16.85631943,
2.644166708,16.25953484,
2.645833254,16.25572395,
2.647500038,16.60948944,
2.649166584,16.4826107,
2.650833368,16.27398109,
2.652500153,16.5990715,
2.654166698,16.14393044,
2.655833483,16.4145565,
2.657500029,16.39681816,
2.659166813,16.47795296,
2.660833597,16.88891983,
2.662499905,16.20850563,
2.664166689,16.18008614,
2.665833235,16.45679283,
2.667500019,16.47297668,
2.669166803,16.30922318,
2.670833349,16.14887238,
2.672500134,16.18714714,
2.674166679,16.51861572,
2.675833464,16.65494537,
2.677500248,16.48869133,
2.679166555,16.66479683,
2.68083334,16.50647926,
2.682499886,16.55776978,
2.68416667,16.86438751,
2.685833454,16.38908577,
2.6875,16.64981651,
2.689166784,16.44327927,
2.69083333,16.79437447,
2.692500114,16.76777649,
2.694166899,16.56524658,
2.695833445,16.37311745,
2.69749999,16.67294121,
2.699166536,16.68953514,
2.700833321,16.17453003,
2.702500105,16.67899323,
2.704166651,16.53072357,
2.705833435,16.56193161,
2.707499981,16.31077003,
2.709166765,16.77036667,
2.710833549,16.16805458,
2.712500095,16.4432373,
2.71416688,16.15307617,
2.715833187,16.79380417,
2.717499971,16.34728241,
2.719166756,16.73786545,
2.720833302,16.30339241,
2.722500086,16.36295891,
2.724166632,16.18187904,
2.725833416,16.43712616,
2.7275002,16.43883896,
2.729166746,16.68342018,
2.73083353,16.39864349,
2.732499838,16.54480934,
2.734166622,16.47513008,
2.735833406,16.59667778,
2.737499952,16.29909134,
2.739166737,16.58702469,
2.740833282,16.69390678,
2.742500067,16.71632957,
2.744166851,16.31282425,
2.745833397,16.19652939,
2.747500181,16.42486572,
2.749166727,16.51833534,
2.750833273,16.31032944,
2.752500057,16.72697067,
2.754166603,16.85051155,
2.755833387,16.3520565,
2.757499933,16.22399902,
2.759166718,16.28429031,
2.760833502,16.31400681,
2.762500048,16.52292061,
2.764166832,16.19891357,
2.765833378,16.37753677,
2.767500162,16.13188171,
2.769166708,16.46335983,
2.770833254,16.66586494,
2.772500038,16.22880173,
2.774166584,16.49004364,
2.775833368,16.19918251,
2.777500153,16.18363762,
2.779166698,16.64249229,
2.780833483,16.59571266,
2.782500029,16.31567383,
2.784166813,16.18535233,
2.785833597,16.36966515,
2.787499905,16.16414833,
2.789166689,16.47338104,
2.790833235,16.25005722,
2.792500019,16.32346153,
2.794166803,16.54283142,
2.795833349,16.56923676,
2.797500134,16.34618759,
2.799166679,16.40067291,
2.800833464,16.36561775,
2.802500248,16.53721619,
2.804166555,16.2411499,
2.80583334,16.14655304,
2.807499886,16.18969345,
2.80916667,16.26609612,
2.810833454,16.33123589,
2.8125,16.27384949,
2.814166784,16.13779449,
2.81583333,16.13546371,
2.817500114,16.5030365,
2.819166899,16.44865227,
2.820833445,16.81867599,
2.82249999,16.19242096,
2.824166536,16.29601479,
2.825833321,16.51153564,
2.827500105,16.60414124,
2.829166651,16.48243713,
2.830833435,16.60372925,
2.832499981,16.23241234,
2.834166765,16.61002541,
2.835833549,16.47232819,
2.837500095,16.18964767,
2.83916688,15.88493252,
2.840833187,16.60577011,
2.842499971,16.36140442,
2.844166756,16.52273178,
2.845833302,16.25857353,
2.847500086,16.25268745,
2.849166632,16.45161057,
2.850833416,16.51926613,
2.8525002,16.04177094,
2.854166746,16.13265419,
2.85583353,16.76952744,
2.857499838,16.17271233,
2.859166622,16.42761803,
2.860833406,16.67715836,
2.862499952,16.06361961,
2.864166737,16.51810455,
2.865833282,16.08678436,
2.867500067,16.45933342,
2.869166851,16.08679771,
2.870833397,16.40408516,
2.872500181,16.8030262,
2.874166727,16.07201195,
2.875833273,16.31656456,
2.877500057,16.21038628,
2.879166603,16.40544319,
2.880833387,16.53296852,
2.882499933,16.10117722,
2.884166718,16.17051506,
2.885833502,16.09551048,
2.887500048,16.36894226,
2.889166832,16.30561447,
2.890833378,16.4145546,
2.892500162,16.6035099,
2.894166708,16.07187653,
2.895833254,16.59038544,
2.897500038,16.48911476,
2.899166584,16.69302368,
2.900833368,16.23776245,
2.902500153,16.3016777,
2.904166698,16.21920967,
2.905833483,16.49840355,
2.907500029,16.35237885,
2.909166813,16.83129692,
2.910833597,16.33680344,
2.912499905,16.37301254,
2.914166689,16.3542881,
2.915833235,16.24093056,
2.917500019,16.3439045,
2.919166803,16.53549767,
2.920833349,16.34197044,
2.922500134,16.35796165,
2.924166679,16.51211166,
2.925833464,16.46716309,
2.927500248,16.42906761,
2.929166555,16.52122307,
2.93083334,16.24866867,
2.932499886,16.41172218,
2.93416667,16.38672066,
2.935833454,16.50170898,
2.9375,16.41759491,
2.939166784,16.33180618,
2.94083333,16.21092987,
2.942500114,16.36878395,
2.944166899,16.04149628,
2.945833445,16.38170052,
2.94749999,16.39344215,
2.949166536,16.70892906,
2.950833321,16.33581543,
2.952500105,16.2020092,
2.954166651,15.98811531,
2.955833435,16.31611824,
2.957499981,16.537817,
2.959166765,16.48494911,
2.960833549,16.44006729,
2.962500095,16.36407852,
2.96416688,16.71446228,
2.965833187,16.45222473,
2.967499971,16.35651016,
2.969166756,16.36458206,
2.970833302,16.10936546,
2.972500086,16.43392944,
2.974166632,16.43207741,
2.975833416,16.37910843,
2.9775002,16.35999107,
2.979166746,16.58826447,
2.98083353,16.32366371,
2.982499838,16.07928467,
2.984166622,15.94314003,
2.985833406,16.73759842,
2.987499952,16.34236526,
2.989166737,16.30389595,
2.990833282,16.65115166,
2.992500067,16.3006134,
2.994166851,16.8422184,
2.995833397,16.53344727,
2.997500181,16.1143322,
2.999166727,16.50419998,
3.000833273,16.48598862,
3.002500057,16.45432472,
3.004166603,16.4587574,
3.005833387,16.12710381,
3.007499933,16.16277504,
3.009166718,16.57968712,
3.010833502,16.40726089,
3.012500048,16.18619728,
3.014166832,16.45072556,
3.015833378,16.25203896,
3.017500162,16.49529648,
3.019166708,16.4369297,
3.020833254,16.44056702,
3.022500038,16.58793449,
3.024166584,16.41069984,
3.025833368,16.1012001,
3.027500153,16.65118408,
3.029166698,16.33111572,
3.030833483,16.15852928,
3.032500029,16.33726883,
3.034166813,16.33714294,
3.035833597,16.13472939,
3.037499905,16.34670639,
3.039166689,16.16752243,
3.040833235,16.27163124,
3.042500019,16.7036438,
3.044166803,15.88976192,
3.045833349,16.53707886,
3.047500134,16.35567665,
3.049166679,16.39382935,
3.050833464,16.53912163,
3.052500248,16.55067635,
3.054166555,16.34888458,
3.05583334,16.46129227,
3.057499886,16.24277115,
3.05916667,16.46519089,
3.060833454,16.00113678,
3.0625,16.46800041,
3.064166784,16.3332386,
3.06583333,16.75451469,
3.067500114,16.46800423,
3.069166899,16.41228485,
3.070833445,16.01144409,
3.07249999,16.2157383,
3.074166536,16.32789803,
3.075833321,16.41486359,
3.077500105,16.46402931,
3.079166651,16.62367249,
3.080833435,16.73719406,
3.082499981,16.17772102,
3.084166765,16.28577805,
3.085833549,16.53421974,
3.087500095,16.50996208,
3.08916688,16.45531845,
3.090833187,16.58869553,
3.092499971,16.29681396,
3.094166756,16.53050041,
3.095833302,15.8702898,
3.097500086,16.17652321,
3.099166632,16.44914055,
3.100833416,16.26489067,
3.1025002,16.51055527,
3.104166746,16.25645638,
3.10583353,16.37492752,
3.107499838,16.35933304,
3.109166622,16.39433098,
3.110833406,16.28313065,
3.112499952,16.33314323,
3.114166737,16.24564552,
3.115833282,16.32515144,
3.117500067,16.41597557,
3.119166851,16.80920792,
3.120833397,16.38409615,
3.122500181,16.35320473,
3.124166727,16.41418648,
3.125833273,16.58364105,
3.127500057,16.14595413,
3.129166603,15.9142971,
3.130833387,16.52902412,
3.132499933,15.90219879,
3.134166718,16.28399277,
3.135833502,16.51505661,
3.137500048,16.22861481,
3.139166832,16.88473892,
3.140833378,16.54949188,
3.142500162,16.48903275,
3.144166708,15.95439243,
3.145833254,16.47364044,
3.147500038,16.08171844,
3.149166584,16.40311813,
3.150833368,16.4141655,
3.152500153,16.28693199,
3.154166698,16.35412216,
3.155833483,16.28790474,
3.157500029,16.46828842,
3.159166813,16.17959404,
3.160833597,16.09091568,
3.162499905,16.18439865,
3.164166689,16.38879967,
3.165833235,16.50709534,
3.167500019,16.25344086,
3.169166803,16.01474571,
3.170833349,16.37219048,
3.172500134,16.31214905,
3.174166679,16.38076591,
3.175833464,16.47537613,
3.177500248,16.60471916,
3.179166555,16.34734535,
3.18083334,15.85499954,
3.182499886,16.49549103,
3.18416667,16.12377357,
3.185833454,16.44942284,
3.1875,16.49120331,
3.189166784,16.07538223,
3.19083333,16.5326519,
3.192500114,16.40231133,
3.194166899,16.1959877,
3.195833445,16.41181755,
3.19749999,16.06354141,
3.199166536,16.35390854,
3.200833321,16.10258675,
3.202500105,16.04069901,
3.204166651,16.5482235,
3.205833435,16.29148674,
3.207499981,16.2780056,
3.209166765,16.52667999,
3.210833549,15.99947548,
3.212500095,16.36779976,
3.21416688,15.96682739,
3.215833187,16.41768265,
3.217499971,16.10593033,
3.219166756,16.06364059,
3.220833302,16.3212204,
3.222500086,16.29751968,
3.224166632,16.27040482,
3.225833416,16.54376411,
3.2275002,16.21112823,
3.229166746,16.29817963,
3.23083353,16.31768799,
3.232499838,16.03388596,
3.234166622,16.4344368,
3.235833406,16.76158142,
3.237499952,16.28635788,
3.239166737,16.14007187,
3.240833282,16.42519569,
3.242500067,16.38862228,
3.244166851,16.07010651,
3.245833397,16.28865242,
3.247500181,16.44038582,
3.249166727,16.32707787,
3.250833273,16.5057888,
3.252500057,16.13160133,
3.254166603,16.4002285,
3.255833387,16.36400414,
3.257499933,16.43206406,
3.259166718,16.69113159,
3.260833502,16.17589188,
3.262500048,16.51015282,
3.264166832,15.90829945,
3.265833378,16.60276604,
3.267500162,15.95545006,
3.269166708,16.48579788,
3.270833254,16.46775246,
3.272500038,16.08749199,
3.274166584,16.6265583,
3.275833368,16.35985756,
3.277500153,16.55781364,
3.279166698,16.1063118,
3.280833483,16.4908123,
3.282500029,15.78916264,
3.284166813,16.07680893,
3.285833597,16.10583305,
3.287499905,16.03264046,
3.289166689,16.39619064,
3.290833235,16.20163536,
3.292500019,16.20136261,
3.294166803,15.96402931,
3.295833349,16.39344215,
3.297500134,16.03852654,
3.299166679,16.23573303,
3.300833464,16.36748886,
3.302500248,16.3297348,
3.304166555,15.84549427,
3.30583334,16.19116974,
3.307499886,15.920825,
3.30916667,16.33927536,
3.310833454,15.99010277,
3.3125,15.74520779,
3.314166784,16.28414154,
3.31583333,16.5200119,
3.317500114,16.21026611,
3.319166899,15.76564693,
3.320833445,16.27218056,
3.32249999,16.34844971,
3.324166536,16.27723885,
3.325833321,16.10223198,
3.327500105,16.23542213,
3.329166651,16.53229141,
3.330833435,16.225214,
3.332499981,15.86796856,
3.334166765,16.13475227,
3.335833549,15.93387699,
3.337500095,16.17942619,
3.33916688,16.61803246,
3.340833187,16.39081955,
3.342499971,16.33339691,
3.344166756,15.80471516,
3.345833302,16.10352135,
3.347500086,16.03813744,
3.349166632,16.00156021,
3.350833416,16.18737602,
3.3525002,16.5722084,
3.354166746,16.47861862,
3.35583353,16.44393158,
3.357499838,16.31263924,
3.359166622,16.71579742,
3.360833406,16.20327187,
3.362499952,16.58641434,
3.364166737,15.9545536,
3.365833282,15.88632202,
3.367500067,16.31075668,
3.369166851,16.21733475,
3.370833397,15.94300747,
3.372500181,16.33987045,
3.374166727,16.18043709,
3.375833273,15.87449551,
3.377500057,16.03212357,
3.379166603,16.34888458,
3.380833387,16.20352554,
3.382499933,15.86238861,
3.384166718,16.12042809,
3.385833502,16.24729729,
3.387500048,16.26187515,
3.389166832,16.14860535,
3.390833378,16.21799278,
3.392500162,16.53865051,
3.394166708,16.051157,
3.395833254,16.42531967,
3.397500038,16.23447227,
3.399166584,16.02241325,
3.400833368,16.68115997,
3.402500153,16.19582176,
3.404166698,16.38651848,
3.405833483,16.09217453,
3.407500029,16.1867485,
3.409166813,16.07455254,
3.410833597,16.13479996,
3.412499905,15.90288258,
3.414166689,16.0569973,
3.415833235,16.47668457,
3.417500019,16.14260101,
3.419166803,16.5394783,
3.420833349,16.3936348,
3.422500134,16.01086426,
3.424166679,16.41909981,
3.425833464,16.19287491,
3.427500248,16.49562073,
3.429166555,16.09157372,
3.43083334,16.60725594,
3.432499886,16.14467621,
3.43416667,16.29156494,
3.435833454,15.7136898,
3.4375,16.1061306,
3.439166784,15.68094826,
3.44083333,16.05143929,
3.442500114,15.87808323,
3.444166899,16.47676086,
3.445833445,16.49214363,
3.44749999,16.51048851,
3.449166536,16.24684906,
3.450833321,16.20341682,
3.452500105,15.98592472,
3.454166651,15.95258141,
3.455833435,16.69719505,
3.457499981,16.42158508,
3.459166765,16.15099525,
3.460833549,16.25642586,
3.462500095,16.42147446,
3.46416688,16.39257813,
3.465833187,16.15834045,
3.467499971,16.22731018,
3.469166756,16.5397644,
3.470833302,16.51741028,
3.472500086,15.95445347,
3.474166632,16.34742737,
3.475833416,16.10370064,
3.4775002,15.92656803,
3.479166746,16.2177124,
3.48083353,16.47719193,
3.482499838,16.34174728,
3.484166622,16.29956436,
3.485833406,16.36437988,
3.487499952,15.80072021,
3.489166737,16.64507103,
3.490833282,16.30625534,
3.492500067,16.13850212,
3.494166851,16.23827934,
3.495833397,16.44932938,
3.497500181,16.23106194,
3.499166727,15.99616718,
3.500833273,16.23464966,
3.502500057,16.31889915,
3.504166603,16.10593033,
3.505833387,16.13880348,
3.507499933,16.08841324,
3.509166718,16.16897774,
3.510833502,16.10997009,
3.512500048,16.28932762,
3.514166832,16.22983742,
3.515833378,16.48919678,
3.517500162,16.08528137,
3.519166708,16.01814651,
3.520833254,16.36349869,
3.522500038,16.35412407,
3.524166584,15.7127552,
3.525833368,16.35960579,
3.527500153,16.3706398,
3.529166698,16.02391434,
3.530833483,16.16390228,
3.532500029,16.04752159,
3.534166813,16.37624741,
3.535833597,15.97721672,
3.537499905,16.13440514,
3.539166689,16.22460556,
3.540833235,16.21107483,
3.542500019,16.17415428,
3.544166803,16.1207695,
3.545833349,16.05672836,
3.547500134,16.2173748,
3.549166679,16.44345665,
3.550833464,16.08782959,
3.552500248,16.30109787,
3.554166555,16.14235878,
3.55583334,16.351017,
3.557499886,16.59663582,
3.55916667,16.06177139,
3.560833454,16.24821281,
3.5625,16.3184948,
3.564166784,16.3297863,
3.56583333,16.07287788,
3.567500114,16.29682732,
3.569166899,16.17122269,
3.570833445,16.35089684,
3.57249999,16.04083633,
3.574166536,16.03162193,
3.575833321,16.25733185,
3.577500105,15.81932831,
3.579166651,16.29667091,
3.580833435,16.39602852,
3.582499981,16.1876564,
3.584166765,15.97457218,
3.585833549,16.16160393,
3.587500095,16.28339386,
3.58916688,16.39131546,
3.590833187,16.33994675,
3.592499971,16.22251892,
3.594166756,16.31125641,
3.595833302,16.00014114,
3.597500086,16.19059753,
3.599166632,16.11380005,
3.600833416,16.21921921,
3.6025002,16.570364,
3.604166746,16.39200974,
3.60583353,16.43407822,
3.607499838,15.95311069,
3.609166622,16.03684235,
3.610833406,16.38030434,
3.612499952,16.40882492,
3.614166737,16.3476963,
3.615833282,15.97831726,
3.617500067,16.23357582,
3.619166851,16.39547539,
3.620833397,16.43377113,
3.622500181,16.4666214,
3.624166727,16.50166893,
3.625833273,16.25114441,
3.627500057,16.15395927,
3.629166603,16.27044678,
3.630833387,16.30510902,
3.632499933,16.10151291,
3.634166718,16.25559425,
3.635833502,16.03962135,
3.637500048,15.98397446,
3.639166832,16.51804924,
3.640833378,16.27109146,
3.642500162,16.27449036,
3.644166708,16.2103138,
3.645833254,16.25746536,
3.647500038,16.321064,
3.649166584,16.30466461,
3.650833368,16.73106384,
3.652500153,16.34377861,
3.654166698,15.95674419,
3.655833483,16.18115425,
3.657500029,16.01988029,
3.659166813,16.28844261,
3.660833597,16.05177689,
3.662499905,16.16607857,
3.664166689,16.28552437,
3.665833235,16.1579361,
3.667500019,16.20112419,
3.669166803,15.97721672,
3.670833349,16.32622147,
3.672500134,16.33819389,
3.674166679,16.51270866,
3.675833464,16.2798996,
3.677500248,15.87511063,
3.679166555,16.53030586,
3.68083334,16.15083504,
3.682499886,16.43193817,
3.68416667,16.18132401,
3.685833454,15.92818832,
3.6875,16.26655197,
3.689166784,16.27593231,
3.69083333,16.28389168,
3.692500114,15.93667221,
3.694166899,16.06202507,
3.695833445,16.1566906,
3.69749999,16.21719551,
3.699166536,16.44656563,
3.700833321,16.31874466,
3.702500105,16.27144241,
3.704166651,16.24834633,
3.705833435,16.30127525,
3.707499981,15.65722179,
3.709166765,16.21520042,
3.710833549,16.00910378,
3.712500095,16.30089569,
3.71416688,16.14492416,
3.715833187,16.35185051,
3.717499971,16.18298721,
3.719166756,16.30457306,
3.720833302,16.52558327,
3.722500086,16.15384293,
3.724166632,16.35580063,
3.725833416,16.08144379,
3.7275002,15.76556969,
3.729166746,16.30642128,
3.73083353,16.35682869,
3.732499838,16.14310646,
3.734166622,16.18514061,
3.735833406,16.49790573,
3.737499952,15.98829556,
3.739166737,16.57121849,
3.740833282,16.02329826,
3.742500067,16.25039291,
3.744166851,16.4644146,
3.745833397,15.94713879,
3.747500181,16.02981186,
3.749166727,16.54266548,
3.750833273,16.27831459,
3.752500057,16.13179398,
3.754166603,16.53278732,
3.755833387,16.01410103,
3.757499933,16.26512718,
3.759166718,16.16752434,
3.760833502,16.24635315,
3.762500048,16.06117058,
3.764166832,16.06720352,
3.765833378,16.09082794,
3.767500162,16.2947731,
3.769166708,16.52031517,
3.770833254,16.07987213,
3.772500038,16.1020298,
3.774166584,16.11397362,
3.775833368,16.06327057,
3.777500153,16.33145523,
3.779166698,16.34416008,
3.780833483,16.14580536,
3.782500029,16.39353943,
3.784166813,16.06383514,
3.785833597,15.74444389,
3.787499905,16.13966179,
3.789166689,16.33497429,
3.790833235,16.30744934,
3.792500019,16.33394814,
3.794166803,16.68039703,
3.795833349,16.01233864,
3.797500134,16.32076263,
3.799166679,16.42078209,
3.800833464,16.48114586,
3.802500248,16.27902794,
3.804166555,16.02183723,
3.80583334,16.20082092,
3.807499886,16.27097702,
3.80916667,16.3695488,
3.810833454,16.01735306,
3.8125,16.09843445,
3.814166784,15.86603355,
3.81583333,16.60518646,
3.817500114,16.5087719,
3.819166899,16.2505722,
3.820833445,16.06276512,
3.82249999,15.91571045,
3.824166536,16.37982368,
3.825833321,15.98534393,
3.827500105,16.30291748,
3.829166651,16.13546562,
3.830833435,15.81603622,
3.832499981,16.26288795,
3.834166765,15.94095707,
3.835833549,16.54680443,
3.837500095,16.27893257,
3.83916688,16.56659126,
3.840833187,16.09464836,
3.842499971,16.35876083,
3.844166756,15.93007183,
3.845833302,16.4654808,
3.847500086,16.06895065,
3.849166632,16.46328354,
3.850833416,16.2095871,
3.8525002,16.18335915,
3.854166746,16.20685005,
3.85583353,15.97645855,
3.857499838,16.39045906,
3.859166622,15.93153954,
3.860833406,16.27799225,
3.862499952,16.25199509,
3.864166737,16.32593155,
3.865833282,15.84934044,
3.867500067,15.93425465,
3.869166851,15.94675159,
3.870833397,16.28429031,
3.872500181,16.05097198,
3.874166727,16.54429054,
3.875833273,16.29607773,
3.877500057,16.26852989,
3.879166603,15.91958523,
3.880833387,16.08625412,
3.882499933,16.82955551,
3.884166718,16.03952217,
3.885833502,16.27760506,
3.887500048,16.37076378,
3.889166832,16.30304146,
3.890833378,16.48041153,
3.892500162,16.07737732,
3.894166708,16.58950043,
3.895833254,16.14894485,
3.897500038,16.13266373,
3.899166584,16.73320007,
3.900833368,16.43988609,
3.902500153,16.08775711,
3.904166698,16.30523872,
3.905833483,16.30838013,
3.907500029,16.33834076,
3.909166813,16.0045929,
3.910833597,16.27056503,
3.912499905,16.31223679,
3.914166689,16.45651436,
3.915833235,16.26265526,
3.917500019,16.48084831,
3.919166803,16.44788742,
3.920833349,15.79701519,
3.922500134,16.48335457,
3.924166679,16.33677292,
3.925833464,16.08231354,
3.927500248,16.54066467,
3.929166555,16.10060501,
3.93083334,16.01916122,
3.932499886,16.39565468,
3.93416667,16.29155159,
3.935833454,16.60277939,
3.9375,16.29208565,
3.939166784,16.31120491,
3.94083333,16.37352562,
3.942500114,16.1825943,
3.944166899,16.4381485,
3.945833445,16.15462494,
3.94749999,16.51596451,
3.949166536,16.31425285,
3.950833321,16.20327187,
3.952500105,16.15489769,
3.954166651,15.83125973,
3.955833435,16.4753685,
3.957499981,16.20796776,
3.959166765,16.03523636,
3.960833549,15.86599636,
3.962500095,16.15738678,
3.96416688,15.99541664,
3.965833187,16.48031235,
3.967499971,15.90787983,
3.969166756,16.25595665,
3.970833302,16.18925285,
3.972500086,16.44821548,
3.974166632,16.09554672,
3.975833416,16.18517303,
3.9775002,16.06191254,
3.979166746,16.478302,
3.98083353,16.45788383,
3.982499838,16.50479889,
3.984166622,16.55948067,
3.985833406,16.22084236,
3.987499952,16.23747253,
3.989166737,16.81881714,
3.990833282,16.66451645,
3.992500067,16.36707687,
3.994166851,16.57546997,
3.995833397,16.40392303,
3.997500181,16.60023499,
3.999166727,16.1086235,
4.000833511,16.41646004,
4.002500057,16.06762505,
4.004166603,16.2249794,
4.005833626,16.38018799,
4.007500172,15.96381283,
4.009166718,16.16147423,
4.010833263,16.48851204,
4.012499809,16.02931786,
4.014166832,16.7318058,
4.015833378,16.23996544,
4.017499924,15.84570694,
4.019166946,16.26878166,
4.020833492,15.98256683,
4.022500038,16.02845764,
4.024166584,15.9443264,
4.025833607,16.23781776,
4.027500153,16.19381332,
4.029166698,15.94854164,
4.030833244,16.40641785,
4.03249979,16.35069275,
4.034166813,16.28341675,
4.035833359,16.01819992,
4.037499905,16.0707016,
4.039166927,16.25906563,
4.040833473,15.86568928,
4.042500019,15.66971302,
4.044167042,16.17991447,
4.045833111,16.30403328,
4.047500134,16.42639732,
4.049166679,16.16087914,
4.050833225,16.1633091,
4.052500248,16.18026352,
4.054166794,16.18860054,
4.05583334,15.96527004,
4.057499886,16.07844162,
4.059166908,16.46146584,
4.060833454,15.99719334,
4.0625,16.06525993,
4.064166546,16.20194054,
4.065833092,16.11279488,
4.067500114,15.79229736,
4.06916666,16.45564461,
4.070833206,16.03744507,
4.072500229,16.20731163,
4.074166775,16.39188004,
4.075833321,15.94912243,
4.077500343,16.71327019,
4.079166889,16.0779438,
4.080833435,15.975667,
4.082499981,15.90782738,
4.084166527,16.15707016,
4.085833549,16.4869442,
4.087500095,16.617733,
4.089166641,16.44744682,
4.090833187,16.08938789,
4.09250021,16.14953804,
4.094166756,16.49129868,
4.095833302,16.22330475,
4.097500324,16.17780685,
4.099166393,16.25724411,
4.100833416,16.02911758,
4.102499962,16.31924438,
4.104166508,16.28813171,
4.10583353,15.90990829,
4.107500076,16.37301064,
4.109166622,16.26830292,
4.110833645,16.18933487,
4.112500191,16.58905029,
4.114166737,16.06240845,
4.115833282,16.16765785,
4.117499828,16.47754288,
4.119166851,16.39548492,
4.120833397,16.07518768,
4.122499943,15.93844414,
4.124166489,16.14048767,
4.125833511,16.36664009,
4.127500057,16.12524414,
4.129166603,16.06399727,
4.130833626,16.22346687,
4.132500172,16.19895363,
4.134166718,16.48091888,
4.135833263,16.17978287,
4.137499809,16.3297348,
4.139166832,16.13339806,
4.140833378,16.5901165,
4.142499924,16.39780998,
4.144166946,16.23634148,
4.145833492,16.30031967,
4.147500038,16.02745247,
4.149166584,16.0836544,
4.150833607,16.59301949,
4.152500153,16.12922478,
4.154166698,16.48814774,
4.155833244,16.20856476,
4.15749979,16.09739685,
4.159166813,16.41649437,
4.160833359,16.20290184,
4.162499905,16.24897766,
4.164166927,15.95929432,
4.165833473,16.22352791,
4.167500019,16.20704842,
4.169167042,16.44108582,
4.170833111,16.20096397,
4.172500134,16.04009438,
4.174166679,16.38168907,
4.175833225,16.2327652,
4.177500248,16.13812065,
4.179166794,15.89932251,
4.18083334,16.21805763,
4.182499886,16.00778198,
4.184166908,16.72914886,
4.185833454,16.26073456,
4.1875,15.96446133,
4.189166546,16.30483055,
4.190833092,16.24768639,
4.192500114,16.45697212,
4.19416666,16.45955467,
4.195833206,16.51529121,
4.197500229,16.30913353,
4.199166775,15.97493172,
4.200833321,16.2349968,
4.202500343,16.00831795,
4.204166889,16.13297081,
4.205833435,16.1531105,
4.207499981,16.43113708,
4.209166527,15.72428226,
4.210833549,15.96916294,
4.212500095,16.27985764,
4.214166641,16.13468361,
4.215833187,15.92071915,
4.21750021,16.69691086,
4.219166756,16.10385132,
4.220833302,16.13755608,
4.222500324,16.06373596,
4.224166393,15.78392506,
4.225833416,16.10099602,
4.227499962,16.38987541,
4.229166508,15.86502266,
4.23083353,16.01590347,
4.232500076,16.13986397,
4.234166622,16.02931404,
4.235833645,16.47608185,
4.237500191,16.18981743,
4.239166737,16.05920029,
4.240833282,16.03596306,
4.242499828,15.88382339,
4.244166851,16.22449112,
4.245833397,16.26793671,
4.247499943,16.34341621,
4.249166489,16.15676308,
4.250833511,16.33469963,
4.252500057,16.18271065,
4.254166603,15.98166847,
4.255833626,15.63071442,
4.257500172,16.15310287,
4.259166718,16.22898102,
4.260833263,16.02974701,
4.262499809,16.15250969,
4.264166832,16.489851,
4.265833378,16.12950706,
4.267500401,16.12092781,
4.26916647,16.2865696,
4.270833492,15.99015331,
4.272500038,16.08189774,
4.274167061,16.24007988,
4.275833607,15.90651321,
4.277499676,16.25883293,
4.279166698,15.97618484,
4.280833244,16.38082123,
4.282500267,16.17472649,
4.284166813,16.08801651,
4.285833359,16.29446602,
4.287499905,16.24371529,
4.289166927,16.20458031,
4.290833473,16.3961525,
4.292500496,16.45930481,
4.294166565,15.85234928,
4.295833111,16.10845375,
4.297500134,15.91448879,
4.299166679,15.9306488,
4.300833702,16.38080788,
4.302499771,16.25959396,
4.304166794,15.99114037,
4.30583334,16.20661163,
4.307500362,16.05714989,
4.309166908,16.13950157,
4.310833454,16.21413422,
4.3125,16.1572094,
4.314166546,16.00388336,
4.315833569,16.11336517,
4.317500114,16.13274765,
4.31916666,16.01199722,
4.320833206,15.93969727,
4.322500229,16.35014534,
4.324166775,16.1363678,
4.325833797,16.19704247,
4.327499866,16.44344139,
4.329166889,16.41501999,
4.330833435,16.12960434,
4.332499981,16.19382668,
4.334167004,16.09474564,
4.335833073,16.24769592,
4.337500095,15.94873905,
4.339166641,15.98796463,
4.340833664,16.31510162,
4.34250021,16.36871338,
4.344166756,15.99976444,
4.345833302,16.20740891,
4.347500324,16.14432144,
4.34916687,15.66841412,
4.350833416,16.55224419,
4.352499962,16.30252266,
4.354166508,16.15532494,
4.35583353,16.2084198,
4.357500076,16.29301643,
4.359167099,16.3554306,
4.360833168,16.52750587,
4.362500191,16.30111885,
4.364166737,16.15645218,
4.365833759,16.19809723,
4.367500305,16.14781189,
4.369166374,15.76808643,
4.370833397,15.841259,
4.372499943,16.16545296,
4.374166965,16.20517731,
4.375833511,16.20563507,
4.377500057,16.07042885,
4.379166603,15.95829964,
4.380833626,16.20300865,
4.382500172,16.18955612,
4.384167194,16.35856438,
4.385833263,16.15271759,
4.387499809,16.27206802,
4.389166832,16.46260643,
4.390833378,16.33078003,
4.392500401,16.53932953,
4.39416647,16.18365669,
4.395833492,16.34129906,
4.397500038,15.88485718,
4.399167061,16.28676033,
4.400833607,16.34786224,
4.402499676,16.22687149,
4.404166698,16.19521713,
4.405833244,16.08471107,
4.407500267,16.11569023,
4.409166813,16.2735157,
4.410833359,15.94494247,
4.412499905,15.8372097,
4.414166927,16.2495327,
4.415833473,16.17660141,
4.417500496,16.24952126,
4.419166565,16.35976028,
4.420833111,16.22213936,
4.422500134,15.97384357,
4.424166679,16.45739746,
4.425833702,16.10764313,
4.427499771,16.42108727,
4.429166794,15.9041996,
4.43083334,16.24913406,
4.432500362,16.32515335,
4.434166908,15.7619791,
4.435833454,16.21823311,
4.4375,16.27228546,
4.439166546,16.28612518,
4.440833569,16.52047729,
4.442500114,16.18597221,
4.44416666,15.92051411,
4.445833206,16.37123108,
4.447500229,16.02406883,
4.449166775,16.37872314,
4.450833797,15.89692402,
4.452499866,16.16012383,
4.454166889,16.52237129,
4.455833435,16.32127762,
4.457499981,15.9865694,
4.459167004,15.89365101,
4.460833073,16.44334793,
4.462500095,15.97915936,
4.464166641,16.16247177,
4.465833664,15.89841938,
4.46750021,15.96241474,
4.469166756,16.11824799,
4.470833302,16.22018814,
4.472500324,16.1394062,
4.47416687,15.9102993,
4.475833416,16.09049416,
4.477499962,16.4074688,
4.479166508,15.89052963,
4.48083353,16.05477524,
4.482500076,16.1449337,
4.484167099,15.96613216,
4.485833168,16.5022831,
4.487500191,15.80882645,
4.489166737,16.26621628,
4.490833759,16.22413635,
4.492500305,16.34531975,
4.494166374,16.25776672,
4.495833397,16.10093117,
4.497499943,16.15542793,
4.499166965,16.46012688,
4.500833511,16.0696106,
4.502500057,16.18844795,
4.504166603,16.42942429,
4.505833626,16.36295319,
4.507500172,16.21949768,
4.509167194,16.04912567,
4.510833263,16.23711777,
4.512499809,16.52554321,
4.514166832,16.02399635,
4.515833378,16.24431801,
4.517500401,16.40388107,
4.51916647,16.14260101,
4.520833492,16.20267487,
4.522500038,15.87940025,
4.524167061,15.91282368,
4.525833607,16.06546974,
4.527499676,16.284235,
4.529166698,16.12364197,
4.530833244,16.33066177,
4.532500267,16.70520592,
4.534166813,16.4488163,
4.535833359,16.01416206,
4.537499905,16.11885262,
4.539166927,16.13706589,
4.540833473,15.90747166,
4.542500496,16.3623867,
4.544166565,16.36281395,
4.545833111,16.37314415,
4.547500134,16.32535934,
4.549166679,16.1258049,
4.550833702,16.25584412,
4.552499771,16.03717995,
4.554166794,16.52331543,
4.55583334,16.09600639,
4.557500362,16.40960503,
4.559166908,16.3777504,
4.560833454,16.67278671,
4.5625,15.99620628,
4.564166546,16.14205933,
4.565833569,16.26939583,
4.567500114,16.09218216,
4.56916666,16.26808929,
4.570833206,16.59923935,
4.572500229,15.88668823,
4.574166775,15.98426533,
4.575833797,16.20566368,
4.577499866,15.94051933,
4.579166889,16.26735878,
4.580833435,16.47223091,
4.582499981,16.06201553,
4.584167004,15.89586926,
4.585833073,15.65270329,
4.587500095,16.10752678,
4.589166641,16.13423729,
4.590833664,15.88717842,
4.59250021,15.88067436,
4.594166756,16.01796341,
4.595833302,16.52565575,
4.597500324,15.92279816,
4.59916687,16.45025635,
4.600833416,16.05118561,
4.602499962,16.13657379,
4.604166508,15.96037674,
4.60583353,16.09825134,
4.607500076,16.1608963,
4.609167099,16.45281982,
4.610833168,15.76326275,
4.612500191,16.2698288,
4.614166737,16.36435699,
4.615833759,15.96462154,
4.617500305,16.17173576,
4.619166374,16.34706879,
4.620833397,15.80922699,
4.622499943,16.24310303,
4.624166965,15.77974129,
4.625833511,16.4217968,
4.627500057,16.23164749,
4.629166603,16.13914871,
4.630833626,16.32532883,
4.632500172,16.26475525,
4.634167194,16.23090172,
4.635833263,15.86963081,
4.637499809,15.99779892,
4.639166832,16.34471703,
4.640833378,16.52417374,
4.642500401,16.42132759,
4.64416647,16.13431931,
4.645833492,16.27215576,
4.647500038,15.75290012,
4.649167061,16.29976273,
4.650833607,15.83568001,
4.652499676,16.46601677,
4.654166698,15.94068623,
4.655833244,16.11255836,
4.657500267,16.31142426,
4.659166813,15.82241631,
4.660833359,16.11520195,
4.662499905,16.06833267,
4.664166927,16.0934639,
4.665833473,15.93843651,
4.667500496,16.13121796,
4.669166565,16.06860542,
4.670833111,16.2826004,
4.672500134,16.35639381,
4.674166679,16.11095428,
4.675833702,16.02325058,
4.677499771,16.05818558,
4.679166794,16.15667915,
4.68083334,16.13694763,
4.682500362,15.6765337,
4.684166908,15.86813641,
4.685833454,16.37131119,
4.6875,16.24236298,
4.689166546,16.08739853,
4.690833569,16.08400345,
4.692500114,15.81925488,
4.69416666,15.66686821,
4.695833206,16.18643188,
4.697500229,16.10729599,
4.699166775,16.46276093,
4.700833797,15.8823843,
4.702499866,16.23101044,
4.704166889,15.91346455,
4.705833435,16.13735771,
4.707499981,16.37451553,
4.709167004,15.9428997,
4.710833073,15.98485374,
4.712500095,16.11273575,
4.714166641,16.00056458,
4.715833664,16.28401375,
4.71750021,15.99699211,
4.719166756,16.17269707,
4.720833302,16.06516838,
4.722500324,16.29093933,
4.72416687,15.92601871,
4.725833416,15.96781063,
4.727499962,15.94579792,
4.729166508,16.06624985,
4.73083353,16.48684883,
4.732500076,15.98078537,
4.734167099,16.18568611,
4.735833168,16.01117516,
4.737500191,16.0663662,
4.739166737,16.4627285,
4.740833759,16.4372139,
4.742500305,15.85447025,
4.744166374,16.06643295,
4.745833397,16.43767929,
4.747499943,16.07707787,
4.749166965,16.25657272,
4.750833511,15.93727207,
4.752500057,16.06420708,
4.754166603,16.45002747,
4.755833626,15.9318409,
4.757500172,16.17287445,
4.759167194,15.81937408,
4.760833263,15.96181488,
4.762499809,16.02220345,
4.764166832,16.28263855,
4.765833378,16.1162529,
4.767500401,16.11678505,
4.76916647,16.1634388,
4.770833492,16.16977882,
4.772500038,16.20832634,
4.774167061,16.36186409,
4.775833607,15.85864449,
4.777499676,16.07155609,
4.779166698,15.9634161,
4.780833244,16.16583633,
4.782500267,16.22406769,
4.784166813,16.22146988,
4.785833359,16.3722744,
4.787499905,16.22347069,
4.789166927,16.02726936,
4.790833473,16.07653046,
4.792500496,15.79714584,
4.794166565,15.66475773,
4.795833111,15.90172386,
4.797500134,16.04672813,
4.799166679,16.14716721,
4.800833702,16.0867939,
4.802499771,16.37574577,
4.804166794,16.45518494,
4.80583334,16.35866356,
4.807500362,16.00290298,
4.809166908,16.14495087,
4.810833454,16.30067444,
4.8125,16.12874794,
4.814166546,16.31604576,
4.815833569,16.02895546,
4.817500114,15.8302002,
4.81916666,16.05307961,
4.820833206,16.31622314,
4.822500229,15.93920422,
4.824166775,15.94232559,
4.825833797,15.88628769,
4.827499866,15.93563366,
4.829166889,16.12493324,
4.830833435,16.2501049,
4.832499981,15.98868179,
4.834167004,16.05054283,
4.835833073,16.54001045,
4.837500095,16.20074463,
4.839166641,16.41553688,
4.840833664,16.00118446,
4.84250021,16.33102989,
4.844166756,15.80608082,
4.845833302,15.97043514,
4.847500324,15.75250721,
4.84916687,16.30347633,
4.850833416,15.86137867,
4.852499962,15.9311552,
4.854166508,16.43484879,
4.85583353,16.24283028,
4.857500076,16.10330009,
4.859167099,16.27340698,
4.860833168,16.16120911,
4.862500191,16.54682159,
4.864166737,16.31741142,
4.865833759,16.08090019,
4.867500305,15.87637329,
4.869166374,15.99611378,
4.870833397,16.028162,
4.872499943,16.21016312,
4.874166965,16.07422066,
4.875833511,16.13036728,
4.877500057,16.06404495,
4.879166603,16.31547356,
4.880833626,16.23660469,
4.882500172,16.11260223,
4.884167194,16.1668911,
4.885833263,16.45470047,
4.887499809,16.37294579,
4.889166832,16.13092041,
4.890833378,16.14781761,
4.892500401,16.10842323,
4.89416647,15.90157127,
4.895833492,16.42249107,
4.897500038,16.47134209,
4.899167061,16.13166046,
4.900833607,16.04810715,
4.902499676,16.33481216,
4.904166698,16.05402565,
4.905833244,16.22802544,
4.907500267,15.80661583,
4.909166813,16.12385368,
4.910833359,16.03563118,
4.912499905,16.08627701,
4.914166927,15.99498272,
4.915833473,16.30402184,
4.917500496,16.26813889,
4.919166565,16.27019119,
4.920833111,16.16309357,
4.922500134,16.16117859,
4.924166679,16.11379433,
4.925833702,16.13122177,
4.927499771,16.12970352,
4.929166794,16.11924171,
4.93083334,16.19174194,
4.932500362,16.31331062,
4.934166908,15.86655903,
4.935833454,16.24135399,
4.9375,16.2668705,
4.939166546,16.15736198,
4.940833569,16.06925011,
4.942500114,16.04031944,
4.94416666,16.31960297,
4.945833206,16.18311119,
4.947500229,16.08316422,
4.949166775,16.30553627,
4.950833797,16.25710297,
4.952499866,16.28570366,
4.954166889,16.08328247,
4.955833435,16.01629639,
4.957499981,16.36794853,
4.959167004,15.47918797,
4.960833073,16.32286072,
4.962500095,15.95357227,
4.964166641,15.92916107,
4.965833664,15.9971323,
4.96750021,16.23882866,
4.969166756,16.03523064,
4.970833302,16.2223053,
4.972500324,16.06533813,
4.97416687,15.89490318,
4.975833416,15.88387585,
4.977499962,16.08815002,
4.979166508,15.94946003,
4.98083353,16.27918053,
4.982500076,16.24129868,
4.984167099,15.7746315,
4.985833168,15.96295261,
4.987500191,16.08304024,
4.989166737,16.03060722,
4.990833759,16.11709404,
4.992500305,16.03170013,
4.994166374,16.07565117,
4.995833397,16.1702137,
4.997499943,16.29685783,
4.999166965,15.78493977,
5.000833511,15.79237747,
5.002500057,16.13366127,
5.004166603,16.26256943,
5.005833626,15.91693401,
5.007500172,16.4329567,
5.009167194,16.05325127,
5.010833263,15.81587982,
5.012499809,16.38373184,

