1,,
Time (min),Intensity (a.u.),
0.0008333333535,257.7061768,
0.002500000177,259.4745178,
0.004166666884,260.328064,
0.005833333358,259.6174011,
0.007500000298,258.3143616,
0.009166667238,259.2855225,
0.01083333418,259.6776733,
0.01250000019,259.9519043,
0.01416666713,259.1573792,
0.01583333313,260.2930603,
0.01750000194,258.9154358,
0.01916666701,259.5548706,
0.02083333395,259.9692993,
0.02250000089,259.1112671,
0.02416666783,261.2391968,
0.02583333477,261.2948608,
0.02749999985,259.5244751,
0.02916666679,260.8258667,
0.03083333373,261.0677185,
0.03250000253,260.9622498,
0.03416666761,261.6966553,
0.03583333641,261.7180481,
0.03750000149,260.9394836,
0.03916667029,259.1959839,
0.04083333537,259.4661865,
0.04250000045,260.0572815,
0.04416666925,262.5903015,
0.04583333433,260.8595276,
0.04750000313,261.9998474,
0.04916666821,260.3632507,
0.05083333328,260.4935913,
0.05250000209,260.0033264,
0.05416666716,260.0960999,
0.05583333597,261.0638733,
0.05750000104,259.2990723,
0.05916666612,260.2112122,
0.06083333492,260.3375244,
0.0625,260.0263672,
0.06416667253,260.5812378,
0.0658333376,261.317688,
0.06750000268,260.4167175,
0.06916666776,260.0592651,
0.07083333284,259.2387695,
0.07249999791,260.7148132,
0.07416667044,259.5642395,
0.07583333552,260.1898804,
0.0775000006,260.7711182,
0.07916666567,260.0258179,
0.08083333075,260.0237122,
0.08250000328,259.5755005,
0.08416666836,261.2095337,
0.08583333343,260.6679993,
0.08749999851,259.1099548,
0.08916666359,260.6744995,
0.09083333611,260.3173828,
0.09250000119,260.0748291,
0.09416666627,259.532074,
0.09583333135,261.4198608,
0.09749999642,259.6244507,
0.09916666895,259.9415588,
0.100833334,259.0051575,
0.1024999991,261.7461243,
0.1041666642,261.1116333,
0.1058333293,261.0117798,
0.1075000018,259.7047119,
0.1091666669,260.2819519,
0.1108333319,258.9457397,
0.112499997,259.910675,
0.1141666621,261.1893005,
0.1158333346,260.9891663,
0.1174999997,260.0272217,
0.1191666648,259.6855469,
0.1208333299,261.3830872,
0.1224999949,260.9472046,
0.1241666749,260.6644897,
0.1258333325,259.8206787,
0.1274999976,262.7089233,
0.1291666627,261.2185364,
0.1308333278,262.3940735,
0.1325000077,259.4763489,
0.1341666728,261.0444336,
0.1358333379,262.0221558,
0.137500003,258.4068909,
0.1391666681,260.5830688,
0.1408333331,260.0618591,
0.1424999982,259.9860229,
0.1441666782,260.6333313,
0.1458333284,260.5365906,
0.1475000083,258.9380798,
0.1491666585,260.877594,
0.1508333385,261.0826416,
0.1525000036,260.044342,
0.1541666687,261.0378723,
0.1558333337,260.3731384,
0.1574999988,259.1895142,
0.1591666639,261.5991821,
0.1608333439,258.8186035,
0.162499994,259.9924316,
0.164166674,260.3505859,
0.1658333242,260.8786316,
0.1675000042,259.6105957,
0.1691666692,260.0971375,
0.1708333343,261.300415,
0.1724999994,258.1717834,
0.1741666645,260.620697,
0.1758333296,259.8020935,
0.1775000095,260.8244324,
0.1791666597,259.3713684,
0.1808333397,260.0112305,
0.1824999899,259.0821533,
0.1841666698,262.3119812,
0.1858333498,260.6263123,
0.1875,260.782959,
0.18916668,261.4440613,
0.1908333302,259.5463257,
0.1925000101,261.4194641,
0.1941666752,259.8754272,
0.1958333403,259.5787659,
0.1975000054,260.0879517,
0.1991666704,259.2198486,
0.2008333355,259.7453003,
0.2025000155,260.3887329,
0.2041666657,260.3886719,
0.2058333457,261.8972473,
0.2074999958,260.9432068,
0.2091666758,260.1052246,
0.2108333409,259.6234131,
0.212500006,259.4990845,
0.214166671,258.36026,
0.2158333361,260.2599487,
0.2175000012,258.6201782,
0.2191666812,260.6701965,
0.2208333313,262.719574,
0.2225000113,260.2537231,
0.2241666615,258.7155762,
0.2258333415,259.2861633,
0.2275000066,260.4507446,
0.2291666716,258.6902466,
0.2308333367,259.9316101,
0.2325000018,259.8276978,
0.2341666669,260.5532532,
0.2358333468,261.7056274,
0.237499997,260.3541565,
0.239166677,261.4309692,
0.2408333272,260.0275269,
0.2425000072,260.2319641,
0.2441666722,259.5121765,
0.2458333373,259.6851807,
0.2475000024,260.660614,
0.2491666675,260.8113403,
0.2508333325,260.9715271,
0.2524999976,260.649353,
0.2541666627,260.8199768,
0.2558333278,260.4919739,
0.2574999928,260.5020447,
0.2591666579,259.2680054,
0.2608333528,260.3499756,
0.2624999881,260.4999084,
0.264166683,260.5462952,
0.2658333182,259.5541077,
0.2675000131,262.6210632,
0.2691666484,260.5645752,
0.2708333433,261.4281921,
0.2725000083,260.9284973,
0.2741666734,260.3791199,
0.2758333385,258.8647766,
0.2775000036,259.5420227,
0.2791666687,260.638092,
0.2808333337,260.4967346,
0.2824999988,260.1896362,
0.2841666937,259.6829529,
0.285833329,259.6472778,
0.287499994,260.3676453,
0.2891666591,260.6918335,
0.290833354,260.0572205,
0.2925000191,260.2612,
0.2941666543,260.3935547,
0.2958333194,260.1565857,
0.2975000143,259.7460938,
0.2991666794,258.8833923,
0.3008333445,260.6181335,
0.3024999797,260.7549744,
0.3041666746,260.4667969,
0.3058333397,258.2927856,
0.3075000048,260.5669861,
0.3091666996,260.5360718,
0.3108333349,260.5291138,
0.3125,260.0856323,
0.3141666651,260.8848572,
0.31583336,259.9844055,
0.317500025,258.1174927,
0.3191666603,259.6493225,
0.3208333254,261.3163452,
0.3225000203,261.5109253,
0.3241666853,260.725647,
0.3258333504,261.5473633,
0.3274999857,258.6965637,
0.3291666806,262.7026062,
0.3308333457,259.2168579,
0.3325000107,258.7575073,
0.3341666758,261.5194092,
0.3358333409,259.6208496,
0.337500006,260.6660767,
0.339166671,261.1842651,
0.3408333361,258.486908,
0.342500031,259.5628662,
0.3441666663,259.4586182,
0.3458333313,258.8217773,
0.3474999964,261.7984009,
0.3491666913,260.6914673,
0.3508333564,259.7198792,
0.3524999917,260.5092773,
0.3541666567,259.6957703,
0.3558333516,260.9128723,
0.3575000167,259.7910461,
0.3591666818,260.0540161,
0.360833317,260.4326172,
0.3625000119,259.1602478,
0.364166677,259.6988525,
0.3658333421,261.1638794,
0.3675000072,259.0951843,
0.3691666722,260.5066223,
0.3708333373,260.5147705,
0.3725000024,260.5653076,
0.3741666675,261.1160278,
0.3758333623,260.8455505,
0.3774999976,261.2904968,
0.3791666627,261.8467712,
0.3808333278,257.3163452,
0.3825000226,258.0647278,
0.3841666877,260.0044556,
0.385833323,260.6670227,
0.3874999881,262.2096558,
0.389166683,260.2755432,
0.390833348,259.8719177,
0.3925000131,261.3699646,
0.3941666484,260.5455933,
0.3958333433,259.6749573,
0.3975000083,260.853302,
0.3991666734,259.2048645,
0.4008333385,259.8369141,
0.4025000036,260.3117676,
0.4041666687,259.493103,
0.4058333337,261.0166626,
0.4074999988,259.6270447,
0.4091666937,261.2870178,
0.410833329,261.2836304,
0.412499994,260.1064758,
0.4141666591,259.566925,
0.415833354,260.8187256,
0.4175000191,261.278717,
0.4191666543,261.0280762,
0.4208333194,260.9851379,
0.4225000143,259.7796326,
0.4241666794,259.7286072,
0.4258333445,260.1433105,
0.4274999797,260.5935364,
0.4291666746,260.7876282,
0.4308333397,260.6435242,
0.4325000048,260.5151672,
0.4341666996,261.3087769,
0.4358333349,259.9437866,
0.4375,260.0500183,
0.4391666651,259.8218994,
0.44083336,259.9243469,
0.442500025,260.1418152,
0.4441666603,260.5550842,
0.4458333254,260.1245117,
0.4475000203,259.3140259,
0.4491666853,258.9839478,
0.4508333504,261.9647827,
0.4524999857,259.4306641,
0.4541666806,260.73703,
0.4558333457,260.5355835,
0.4575000107,260.4211426,
0.4591666758,261.4075012,
0.4608333409,259.4267578,
0.462500006,260.54953,
0.464166671,260.7545166,
0.4658333361,260.748291,
0.467500031,260.7845764,
0.4691666663,261.4501953,
0.4708333313,258.3182983,
0.4724999964,258.7453918,
0.4741666913,259.9972534,
0.4758333564,260.1643677,
0.4774999917,258.7646484,
0.4791666567,259.0650635,
0.4808333516,261.6342163,
0.4825000167,260.0897827,
0.4841666818,260.5693665,
0.485833317,259.7003479,
0.4875000119,259.3630676,
0.489166677,260.0996399,
0.4908333421,260.4093628,
0.4925000072,259.9395447,
0.4941666722,261.3973083,
0.4958333373,260.7343445,
0.4975000024,259.2112427,
0.4991666675,261.7677002,
0.5008333325,260.4004211,
0.5024999976,258.7846069,
0.5041666627,261.7358093,
0.5058333278,260.4845581,
0.5074999928,260.4992065,
0.5091666579,258.8604126,
0.510833323,260.9091492,
0.5124999881,259.7238464,
0.5141666532,260.9081726,
0.5158333182,259.8019714,
0.5175000429,259.2519836,
0.5191666484,261.0686646,
0.5208333135,259.9782104,
0.5224999785,260.4943848,
0.5241667032,261.3117371,
0.5258333683,259.8287964,
0.5274999738,261.2732849,
0.5291666389,260.0117188,
0.5308333635,260.6856689,
0.5325000286,259.5864258,
0.5341666341,260.8999939,
0.5358333588,260.0848389,
0.5375000238,259.9772949,
0.5391666889,260.3302917,
0.540833354,260.1915588,
0.5424999595,259.3994751,
0.5441666842,259.4689636,
0.5458333492,259.7979126,
0.5475000143,259.6975708,
0.5491666794,260.1450806,
0.5508333445,260.5110474,
0.5525000095,259.3790894,
0.5541666746,258.6786194,
0.5558333993,261.4993896,
0.5575000048,262.9697571,
0.5591666698,260.9958496,
0.5608333349,259.3264465,
0.5625,258.5970459,
0.5641667247,260.1299438,
0.5658333302,261.2787781,
0.5674999952,261.4890747,
0.5691667199,259.2169495,
0.5708333254,259.5357666,
0.5725000501,261.8092957,
0.5741666555,257.8819275,
0.5758333206,260.3161011,
0.5775000453,260.3931885,
0.5791666508,260.1882935,
0.5808333755,260.9488831,
0.5825000405,261.359375,
0.584166646,259.1185303,
0.5858333707,258.9927979,
0.5874999762,260.4024048,
0.5891667008,261.792572,
0.5908333659,261.8307495,
0.5924999714,261.8187256,
0.5941666961,261.2822266,
0.5958333611,259.5490417,
0.5975000262,259.7008362,
0.5991666913,260.7854004,
0.6008332968,260.3154907,
0.6025000215,260.3862305,
0.6041666865,260.2164001,
0.6058333516,261.0545654,
0.6075000167,259.3254395,
0.6091666818,260.0566711,
0.6108333468,259.132782,
0.6125000119,260.4920959,
0.614166677,260.006134,
0.6158333421,260.3560181,
0.6175000072,260.7606201,
0.6191666722,259.8840027,
0.6208333373,260.1236572,
0.622500062,258.7947083,
0.6241666675,259.1439209,
0.6258333325,260.8761902,
0.6274999976,261.0129089,
0.6291666627,260.1579285,
0.6308333874,260.0389404,
0.6324999928,260.0949402,
0.6341666579,261.5310364,
0.6358333826,259.4595947,
0.6374999881,260.3548584,
0.6391667128,260.5404663,
0.6408333182,258.9474487,
0.6424999833,260.3952942,
0.644166708,260.5455933,
0.6458333135,259.0326843,
0.6475000381,260.9573669,
0.6491667032,261.8417053,
0.6508333087,262.2895203,
0.6525000334,259.7724915,
0.6541666389,258.3827515,
0.6558333635,260.2776794,
0.6575000286,259.8119202,
0.6591666341,259.7341309,
0.6608333588,260.1178284,
0.6625000238,260.7453918,
0.6641666889,260.3613586,
0.665833354,262.7572327,
0.6674999595,261.3224487,
0.6691666842,260.5189209,
0.6708333492,260.7606812,
0.6725000143,260.6860962,
0.6741666794,259.4947815,
0.6758333445,260.2489014,
0.6775000095,260.113678,
0.6791666746,259.8808899,
0.6808333993,259.8175964,
0.6825000048,259.6157837,
0.6841666698,260.7060852,
0.6858333349,259.362854,
0.6875,258.7617188,
0.6891667247,259.7383728,
0.6908333302,258.9693909,
0.6924999952,258.9141846,
0.6941667199,259.9259338,
0.6958333254,261.4992065,
0.6975000501,259.8071594,
0.6991666555,260.4607849,
0.7008333206,259.8011169,
0.7025000453,261.3169861,
0.7041666508,259.818634,
0.7058333755,258.1771851,
0.7075000405,259.2258301,
0.709166646,259.5526428,
0.7108333707,259.8708191,
0.7124999762,261.0968933,
0.7141667008,260.013031,
0.7158333659,260.500061,
0.7174999714,259.2025146,
0.7191666961,259.3886108,
0.7208333611,260.3383484,
0.7225000262,260.2179871,
0.7241666913,257.139801,
0.7258332968,259.7112427,
0.7275000215,261.5755615,
0.7291666865,259.86026,
0.7308333516,258.9719238,
0.7325000167,260.2286377,
0.7341666818,258.3013306,
0.7358333468,259.5576782,
0.7375000119,258.9378052,
0.739166677,260.3102417,
0.7408333421,261.6856079,
0.7425000072,258.2386475,
0.7441666722,258.0341187,
0.7458333373,260.4733887,
0.747500062,260.9992981,
0.7491666675,260.012085,
0.7508333325,260.5689392,
0.7524999976,258.803772,
0.7541666627,259.7079773,
0.7558333874,260.5085144,
0.7574999928,259.195343,
0.7591666579,260.5765076,
0.7608333826,259.3744507,
0.7624999881,258.741272,
0.7641667128,260.4326477,
0.7658333182,260.8266907,
0.7674999833,260.1854553,
0.769166708,258.8127441,
0.7708333135,260.4822998,
0.7725000381,259.7751465,
0.7741667032,260.1843567,
0.7758333087,261.6016846,
0.7775000334,260.2077332,
0.7791666389,262.620697,
0.7808333635,261.0439758,
0.7825000286,260.3665771,
0.7841666341,259.3685913,
0.7858333588,259.1704407,
0.7875000238,259.9634094,
0.7891666889,260.9765015,
0.790833354,260.3296204,
0.7924999595,261.8946228,
0.7941666842,260.5161438,
0.7958333492,260.1657104,
0.7975000143,259.315979,
0.7991666794,263.1886597,
0.8008333445,259.8125305,
0.8025000095,260.421875,
0.8041666746,258.5027466,
0.8058333993,257.9230652,
0.8075000048,258.2286682,
0.8091666698,260.5846558,
0.8108333349,259.379364,
0.8125,259.5559387,
0.8141667247,259.631073,
0.8158333302,257.6265564,
0.8174999952,259.603363,
0.8191667199,259.0807495,
0.8208333254,260.5350952,
0.8225000501,258.7961121,
0.8241666555,258.0961914,
0.8258333206,258.8765564,
0.8275000453,258.6421204,
0.8291666508,259.2315674,
0.8308333755,258.7045593,
0.8325000405,258.6887512,
0.834166646,260.7091064,
0.8358333707,258.9120789,
0.8374999762,258.6410522,
0.8391667008,260.4892578,
0.8408333659,259.3232117,
0.8424999714,260.3874207,
0.8441666961,260.6177673,
0.8458333611,259.3725586,
0.8475000262,258.5715332,
0.8491666913,260.3375854,
0.8508332968,260.6732178,
0.8525000215,262.4119568,
0.8541666865,260.2786865,
0.8558333516,261.9732971,
0.8575000167,259.8033752,
0.8591666818,259.572113,
0.8608333468,258.4709473,
0.8625000119,259.9136963,
0.864166677,259.5171814,
0.8658333421,260.3554993,
0.8675000072,261.191864,
0.8691666722,260.631134,
0.8708333373,259.466095,
0.872500062,258.2199707,
0.8741666675,260.2632446,
0.8758333325,260.5796814,
0.8774999976,259.8623962,
0.8791666627,260.6508179,
0.8808333874,259.8465881,
0.8824999928,261.3028564,
0.8841666579,258.258667,
0.8858333826,260.8121643,
0.8874999881,259.8698425,
0.8891667128,259.3635254,
0.8908333182,259.7174072,
0.8924999833,260.9437256,
0.894166708,259.1965942,
0.8958333135,260.0698547,
0.8975000381,259.9656982,
0.8991667032,259.9091187,
0.9008333087,259.1593628,
0.9025000334,259.7532959,
0.9041666389,260.3480835,
0.9058333635,261.0837402,
0.9075000286,258.2779236,
0.9091666341,259.6977234,
0.9108333588,258.9798584,
0.9125000238,259.3719482,
0.9141666889,258.9515686,
0.915833354,259.5847778,
0.9174999595,258.9259949,
0.9191666842,258.5658875,
0.9208333492,257.9309998,
0.9225000143,258.6271362,
0.9241666794,259.0292053,
0.9258333445,259.8870239,
0.9275000095,258.2022095,
0.9291666746,259.6479797,
0.9308333993,260.1799927,
0.9325000048,259.6547852,
0.9341666698,261.2285156,
0.9358333349,259.2991638,
0.9375,262.0360107,
0.9391667247,258.5653076,
0.9408333302,257.7660522,
0.9424999952,259.3326416,
0.9441667199,260.2877502,
0.9458333254,260.4221497,
0.9475000501,259.5792236,
0.9491666555,258.0684204,
0.9508333206,259.4788818,
0.9525000453,261.1142273,
0.9541666508,259.5118713,
0.9558333755,259.098877,
0.9575000405,260.0296936,
0.959166646,259.4414368,
0.9608333707,259.5246887,
0.9624999762,259.9139099,
0.9641667008,257.5740967,
0.9658333659,260.1051025,
0.9674999714,260.2014771,
0.9691666961,259.090332,
0.9708333611,259.4628601,
0.9725000262,258.6518555,
0.9741666913,260.5147705,
0.9758332968,260.3870239,
0.9775000215,259.1839905,
0.9791666865,260.4071045,
0.9808333516,259.5962219,
0.9825000167,259.9021301,
0.9841666818,259.7901306,
0.9858333468,259.4110718,
0.9875000119,260.5492859,
0.989166677,260.2603455,
0.9908333421,261.0126343,
0.9925000072,260.295105,
0.9941666722,261.6737671,
0.9958333373,257.7738953,
0.997500062,258.5434875,
0.9991666675,259.497406,
1.000833273,259.4774475,
1.002500057,258.5816345,
1.004166722,259.8811035,
1.005833387,261.2452698,
1.007500052,259.8562622,
1.009166598,258.8466797,
1.010833383,258.9866638,
1.012500048,260.1396179,
1.014166713,259.5238037,
1.015833378,260.8162842,
1.017500043,261.0325317,
1.019166708,261.0853577,
1.020833373,259.8113708,
1.022500038,259.4701843,
1.024166703,258.1600037,
1.025833368,258.9119568,
1.027500033,258.684845,
1.029166698,258.9784241,
1.030833364,260.1920776,
1.032500029,259.4739075,
1.034166694,259.404541,
1.035833359,260.9125977,
1.037500024,258.6649475,
1.039166689,259.7302856,
1.040833354,257.1264954,
1.042500019,259.3684082,
1.044166684,259.9218445,
1.045833349,259.2280579,
1.047500014,259.6744385,
1.049166679,261.053894,
1.050833344,258.8029785,
1.05250001,259.2285156,
1.054166675,260.7162476,
1.05583334,260.0819092,
1.057500005,258.932251,
1.05916667,258.1438599,
1.060833335,259.6122742,
1.0625,259.8891602,
1.064166665,258.9058838,
1.06583333,259.4820862,
1.067499995,260.4529114,
1.06916666,259.5375366,
1.070833325,259.5826111,
1.07249999,260.2447815,
1.074166775,258.4335327,
1.07583344,260.6925354,
1.077499986,258.1164551,
1.079166651,261.0734253,
1.080833316,258.5527344,
1.0825001,260.7965393,
1.084166765,258.740448,
1.085833311,258.3694153,
1.087499976,258.5858459,
1.089166641,258.8442993,
1.090833426,259.9891663,
1.092500091,259.2770996,
1.094166636,259.6503601,
1.095833302,259.2112427,
1.097499967,258.3645325,
1.099166751,260.2892761,
1.100833416,259.5112,
1.102500081,259.6250305,
1.104166627,260.2727356,
1.105833292,259.3182983,
1.107500076,260.4910583,
1.109166741,261.1228638,
1.110833406,258.6394958,
1.112499952,258.3276367,
1.114166617,258.2258911,
1.115833402,258.934845,
1.117500067,259.5777893,
1.119166732,261.6869507,
1.120833278,258.8722229,
1.122499943,259.074585,
1.124166727,260.7959595,
1.125833392,259.9027405,
1.127500057,258.6405945,
1.129166722,257.9502869,
1.130833268,259.493866,
1.132500052,259.3145752,
1.134166718,259.0060425,
1.135833383,258.3847656,
1.137500048,260.8671875,
1.139166594,260.4455872,
1.140833378,259.3110962,
1.142500043,258.7642517,
1.144166708,260.8967285,
1.145833373,258.065094,
1.147499919,259.6391296,
1.149166703,260.085907,
1.150833368,258.7143555,
1.152500033,258.1702271,
1.154166698,261.0075378,
1.155833364,258.8235474,
1.157500029,258.8442688,
1.159166694,258.1620789,
1.160833359,259.6318359,
1.162500024,260.9200439,
1.164166689,258.2181091,
1.165833354,260.2294006,
1.167500019,259.8337402,
1.169166684,260.8293152,
1.170833349,259.2317505,
1.172500014,258.9066772,
1.174166799,258.2610168,
1.175833344,260.2810059,
1.17750001,258.8072815,
1.179166675,258.3930969,
1.18083334,259.1957703,
1.182500124,256.8505554,
1.18416667,259.3885498,
1.185833335,259.5545959,
1.1875,258.9605408,
1.189166665,260.7600098,
1.190833449,260.0843811,
1.192499995,259.372467,
1.19416666,260.0743713,
1.195833325,259.5985413,
1.19749999,259.9429321,
1.199166775,259.0067749,
1.20083344,257.7138977,
1.202499986,258.1634521,
1.204166651,259.4405518,
1.205833316,259.2610779,
1.2075001,261.4231567,
1.209166765,261.1116028,
1.210833311,258.4311523,
1.212499976,258.9707031,
1.214166641,260.4368286,
1.215833426,259.6117249,
1.217500091,259.532959,
1.219166636,260.0654297,
1.220833302,258.4450684,
1.222499967,260.6958008,
1.224166751,259.2658081,
1.225833416,256.978363,
1.227500081,259.344635,
1.229166627,259.5480957,
1.230833292,257.8427124,
1.232500076,258.761322,
1.234166741,258.7124329,
1.235833406,258.4676819,
1.237499952,259.1804504,
1.239166617,258.4838867,
1.240833402,259.3848572,
1.242500067,259.0542297,
1.244166732,258.6183472,
1.245833278,259.5133972,
1.247499943,259.5780945,
1.249166727,259.3710327,
1.250833392,259.7183533,
1.252500057,259.5711365,
1.254166722,259.2882996,
1.255833268,260.3277588,
1.257500052,258.8470154,
1.259166718,259.6350708,
1.260833383,259.9825134,
1.262500048,259.3833923,
1.264166594,260.0701599,
1.265833378,259.848877,
1.267500043,260.1663513,
1.269166708,260.6895142,
1.270833373,259.0909424,
1.272499919,260.8718872,
1.274166703,260.9680176,
1.275833368,259.662262,
1.277500033,259.5315857,
1.279166698,259.9865112,
1.280833364,258.6677551,
1.282500029,259.9020081,
1.284166694,259.3978271,
1.285833359,259.8230896,
1.287500024,259.2871399,
1.289166689,259.6303711,
1.290833354,257.980072,
1.292500019,260.6049805,
1.294166684,260.0375671,
1.295833349,261.0967712,
1.297500014,258.0849915,
1.299166799,259.649353,
1.300833344,259.4328613,
1.30250001,258.992981,
1.304166675,259.2093506,
1.30583334,259.4235535,
1.307500124,259.6313171,
1.30916667,257.9417114,
1.310833335,260.261322,
1.3125,259.5480347,
1.314166665,259.3826294,
1.315833449,259.7190247,
1.317499995,258.1029968,
1.31916666,259.431427,
1.320833325,260.4050903,
1.32249999,260.1913452,
1.324166775,259.052124,
1.32583344,261.1888428,
1.327499986,259.9871826,
1.329166651,260.0660706,
1.330833316,259.2391052,
1.3325001,259.275116,
1.334166765,259.1389465,
1.335833311,259.2203369,
1.337499976,259.8889771,
1.339166641,258.9066772,
1.340833426,258.8173218,
1.342500091,260.0934143,
1.344166636,259.9856873,
1.345833302,258.9942627,
1.347499967,261.6815491,
1.349166751,258.2401733,
1.350833416,259.204834,
1.352500081,257.9286499,
1.354166627,258.443634,
1.355833292,259.1958618,
1.357500076,260.0701599,
1.359166741,258.2363586,
1.360833406,259.4141541,
1.362499952,259.5718689,
1.364166617,262.380249,
1.365833402,258.8023376,
1.367500067,259.100647,
1.369166732,259.2872925,
1.370833278,260.2245178,
1.372499943,258.6559143,
1.374166727,259.447876,
1.375833392,260.2931824,
1.377500057,259.5623779,
1.379166722,258.6206665,
1.380833268,259.0785828,
1.382500052,260.4295044,
1.384166718,259.5421753,
1.385833383,259.6718445,
1.387500048,258.6055298,
1.389166594,260.9846802,
1.390833378,260.8796997,
1.392500043,260.8037415,
1.394166708,258.8276672,
1.395833373,257.9439087,
1.397499919,259.8624268,
1.399166703,259.0531311,
1.400833368,260.9691772,
1.402500033,258.4840698,
1.404166698,257.7048645,
1.405833364,259.5587769,
1.407500029,259.6490173,
1.409166694,260.600708,
1.410833359,260.2703552,
1.412500024,260.6266785,
1.414166689,258.7425842,
1.415833354,259.6245422,
1.417500019,258.3596802,
1.419166684,260.1932068,
1.420833349,260.5206299,
1.422500014,260.6459656,
1.424166799,259.9751587,
1.425833344,259.1737366,
1.42750001,258.8322754,
1.429166675,259.5835571,
1.43083334,258.2834167,
1.432500124,257.5192566,
1.43416667,258.4854736,
1.435833335,259.8957214,
1.4375,260.5197449,
1.439166665,259.0116882,
1.440833449,260.0142212,
1.442499995,258.7160339,
1.44416666,257.5289612,
1.445833325,258.8163147,
1.44749999,259.5027161,
1.449166775,259.4524231,
1.45083344,257.341095,
1.452499986,259.9234009,
1.454166651,260.4597473,
1.455833316,258.6551819,
1.4575001,261.5651245,
1.459166765,260.3364258,
1.460833311,257.7628174,
1.462499976,259.8511963,
1.464166641,259.1918945,
1.465833426,259.3184509,
1.467500091,259.2093811,
1.469166636,257.7010193,
1.470833302,260.3000793,
1.472499967,257.9630127,
1.474166751,259.3739319,
1.475833416,260.4747314,
1.477500081,259.2415161,
1.479166627,259.9872437,
1.480833292,260.4142456,
1.482500076,259.5571594,
1.484166741,260.3266296,
1.485833406,260.6437378,
1.487499952,258.8023071,
1.489166617,260.6233826,
1.490833402,259.1563416,
1.492500067,260.4167175,
1.494166732,260.1116028,
1.495833278,261.1410217,
1.497499943,259.3178711,
1.499166727,259.9934082,
1.500833392,259.5635986,
1.502500057,260.506958,
1.504166722,259.5604248,
1.505833268,259.3804321,
1.507500052,260.1855164,
1.509166718,259.8991089,
1.510833383,258.5845642,
1.512500048,260.4589539,
1.514166594,259.7747192,
1.515833378,258.2228088,
1.517500043,260.3478088,
1.519166708,259.6462402,
1.520833373,258.2474365,
1.522499919,258.9356079,
1.524166703,259.6225586,
1.525833368,259.16745,
1.527500033,261.4758606,
1.529166698,259.5730896,
1.530833364,260.4659729,
1.532500029,258.5733032,
1.534166694,259.2426758,
1.535833359,258.9083557,
1.537500024,260.8374329,
1.539166689,259.097229,
1.540833354,259.57724,
1.542500019,260.2060547,
1.544166684,259.3823547,
1.545833349,262.1062317,
1.547500014,259.435791,
1.549166799,259.1869507,
1.550833344,260.5936584,
1.55250001,258.5312805,
1.554166675,258.3253784,
1.55583334,261.0024414,
1.557500124,259.5101013,
1.55916667,258.6422119,
1.560833335,259.6905212,
1.5625,257.7030334,
1.564166665,258.0126343,
1.565833449,259.3269348,
1.567499995,260.2329102,
1.56916666,258.5639648,
1.570833325,258.9757996,
1.57249999,258.3039856,
1.574166775,260.2888794,
1.57583344,259.992157,
1.577499986,260.5637207,
1.579166651,257.9602966,
1.580833316,259.355835,
1.5825001,258.836731,
1.584166765,258.5771484,
1.585833311,259.815094,
1.587499976,259.288147,
1.589166641,259.5780945,
1.590833426,259.8908081,
1.592500091,260.1179504,
1.594166636,259.1101074,
1.595833302,259.0022583,
1.597499967,259.9052734,
1.599166751,259.2734375,
1.600833416,260,
1.602500081,260.4478455,
1.604166627,257.7817993,
1.605833292,259.7424927,
1.607500076,258.4286804,
1.609166741,261.1186829,
1.610833406,258.4561768,
1.612499952,259.6089783,
1.614166617,258.1115417,
1.615833402,259.5137939,
1.617500067,259.8513184,
1.619166732,260.3833313,
1.620833278,259.0917664,
1.622499943,257.3668213,
1.624166727,260.8958435,
1.625833392,260.4440308,
1.627500057,258.6972046,
1.629166722,258.512146,
1.630833268,257.8234863,
1.632500052,259.9200134,
1.634166718,258.2253418,
1.635833383,259.0655823,
1.637500048,259.7176514,
1.639166594,259.8500977,
1.640833378,258.1838684,
1.642500043,259.6562805,
1.644166708,259.1754456,
1.645833373,261.5837402,
1.647499919,258.9998779,
1.649166703,260.1140747,
1.650833368,257.8779907,
1.652500033,259.2623901,
1.654166698,258.5255127,
1.655833364,259.9669189,
1.657500029,259.6694031,
1.659166694,259.2504578,
1.660833359,258.8906555,
1.662500024,259.9899597,
1.664166689,259.0105591,
1.665833354,257.6826172,
1.667500019,257.6285706,
1.669166684,259.0449219,
1.670833349,258.2814026,
1.672500014,259.6326294,
1.674166799,259.7834167,
1.675833344,260.1763306,
1.67750001,260.0031738,
1.679166675,261.967926,
1.68083334,259.8755798,
1.682500124,258.1412048,
1.68416667,258.8874512,
1.685833335,258.4845581,
1.6875,257.8114624,
1.689166665,258.723999,
1.690833449,259.585144,
1.692499995,259.7966309,
1.69416666,259.6866455,
1.695833325,258.250946,
1.69749999,260.0992126,
1.699166775,260.6403809,
1.70083344,261.206665,
1.702499986,259.1170349,
1.704166651,259.4942627,
1.705833316,259.0805969,
1.7075001,259.9061584,
1.709166765,259.4115295,
1.710833311,258.8618469,
1.712499976,259.2680969,
1.714166641,259.422699,
1.715833426,260.4174805,
1.717500091,259.3971558,
1.719166636,259.5820923,
1.720833302,259.7955627,
1.722499967,257.6914673,
1.724166751,259.2340393,
1.725833416,258.1402588,
1.727500081,259.2789612,
1.729166627,259.0345459,
1.730833292,259.4674377,
1.732500076,259.681427,
1.734166741,258.1809692,
1.735833406,259.5361023,
1.737499952,260.4120483,
1.739166617,259.5769653,
1.740833402,259.9355774,
1.742500067,258.7105103,
1.744166732,259.15271,
1.745833278,258.5122681,
1.747499943,259.7954102,
1.749166727,257.9286194,
1.750833392,260.1714172,
1.752500057,260.1916809,
1.754166722,258.6523743,
1.755833268,259.2337036,
1.757500052,261.0001221,
1.759166718,259.1854858,
1.760833383,258.1873169,
1.762500048,258.5727844,
1.764166594,260.5534973,
1.765833378,259.2610168,
1.767500043,259.4275513,
1.769166708,257.8047485,
1.770833373,259.0408325,
1.772499919,259.2110291,
1.774166703,259.5386047,
1.775833368,259.0133667,
1.777500033,258.5587769,
1.779166698,260.7944031,
1.780833364,260.2743835,
1.782500029,257.3565674,
1.784166694,256.4843445,
1.785833359,260.2886353,
1.787500024,259.0275269,
1.789166689,258.9980164,
1.790833354,258.6083679,
1.792500019,257.1225281,
1.794166684,259.7316895,
1.795833349,260.2079468,
1.797500014,259.1433716,
1.799166799,259.0555115,
1.800833344,258.4633484,
1.80250001,258.5527039,
1.804166675,257.8023376,
1.80583334,258.7781982,
1.807500124,257.7880859,
1.80916667,257.348999,
1.810833335,260.3265381,
1.8125,259.5345154,
1.814166665,258.6500549,
1.815833449,257.5447998,
1.817499995,258.8045959,
1.81916666,257.9713745,
1.820833325,259.269104,
1.82249999,258.9590149,
1.824166775,259.994873,
1.82583344,259.1789246,
1.827499986,259.6311035,
1.829166651,258.5422668,
1.830833316,258.1540222,
1.8325001,259.1270142,
1.834166765,258.4769287,
1.835833311,258.1929626,
1.837499976,258.7624207,
1.839166641,259.4768066,
1.840833426,259.8217468,
1.842500091,260.8448181,
1.844166636,260.1236572,
1.845833302,260.603302,
1.847499967,260.6448059,
1.849166751,260.0105896,
1.850833416,260.0161743,
1.852500081,258.7013245,
1.854166627,259.9708557,
1.855833292,259.2290955,
1.857500076,258.8696289,
1.859166741,258.4742737,
1.860833406,259.5448608,
1.862499952,258.8074951,
1.864166617,258.8721924,
1.865833402,260.0530396,
1.867500067,259.4568481,
1.869166732,259.5429382,
1.870833278,257.3744812,
1.872499943,258.2945862,
1.874166727,258.1393738,
1.875833392,259.3546448,
1.877500057,261.3231812,
1.879166722,260.6375122,
1.880833268,259.3592224,
1.882500052,258.9269714,
1.884166718,260.4270325,
1.885833383,257.879364,
1.887500048,259.5949707,
1.889166594,258.9044189,
1.890833378,258.9169922,
1.892500043,259.2176514,
1.894166708,259.0570068,
1.895833373,259.6574402,
1.897499919,258.9272156,
1.899166703,257.3468628,
1.900833368,259.9398499,
1.902500033,257.8208923,
1.904166698,258.9992371,
1.905833364,259.7398682,
1.907500029,259.2660522,
1.909166694,259.0883789,
1.910833359,258.5429382,
1.912500024,259.9301147,
1.914166689,259.724884,
1.915833354,260.3253479,
1.917500019,259.4972839,
1.919166684,257.8061829,
1.920833349,259.8371582,
1.922500014,258.7867126,
1.924166799,259.4023438,
1.925833344,259.8858643,
1.92750001,259.7909241,
1.929166675,259.5223389,
1.93083334,259.1388855,
1.932500124,259.5141296,
1.93416667,259.4136963,
1.935833335,260.2351685,
1.9375,260.0722656,
1.939166665,258.4254456,
1.940833449,259.3001099,
1.942499995,260.283905,
1.94416666,258.1648865,
1.945833325,259.4598389,
1.94749999,260.0759583,
1.949166775,259.3858643,
1.95083344,259.1025391,
1.952499986,260.9341736,
1.954166651,260.1265869,
1.955833316,258.8457642,
1.9575001,259.8945923,
1.959166765,259.9613342,
1.960833311,258.9312134,
1.962499976,257.736908,
1.964166641,260.7124023,
1.965833426,258.5936584,
1.967500091,258.8055725,
1.969166636,260.1898499,
1.970833302,258.1794434,
1.972499967,259.3301086,
1.974166751,260.5721436,
1.975833416,258.9647522,
1.977500081,260.4226685,
1.979166627,260.1025696,
1.980833292,258.8870239,
1.982500076,258.227478,
1.984166741,260.3839722,
1.985833406,259.4695435,
1.987499952,258.3713684,
1.989166617,258.1938171,
1.990833402,257.1965942,
1.992500067,259.8274536,
1.994166732,259.8905334,
1.995833278,258.7644958,
1.997499943,258.1001282,
1.999166727,258.6564331,
2.000833273,260.464447,
2.002500057,258.6574097,
2.004166603,259.6426086,
2.005833387,258.752655,
2.007500172,260.9568787,
2.009166718,259.838501,
2.010833263,259.2749939,
2.012500048,260.0018311,
2.014166594,258.4833069,
2.015833378,258.88797,
2.017500162,260.1996155,
2.019166708,258.7297974,
2.020833254,258.7836914,
2.022500038,258.4043274,
2.024166822,260.5478821,
2.025833368,258.3544922,
2.027499914,257.4863892,
2.029166698,260.5892029,
2.030833244,260.3176575,
2.032500029,259.9181213,
2.034166813,259.7424011,
2.035833359,257.5441895,
2.037499905,260.7109985,
2.039166689,257.6895752,
2.040833473,260.7263184,
2.042500019,258.0203857,
2.044166803,259.3699341,
2.045833349,259.5984192,
2.047499895,258.1162415,
2.049166679,259.6034546,
2.050833464,257.8912354,
2.05250001,259.5773315,
2.054166555,257.7569275,
2.05583334,259.2592468,
2.057500124,259.7416687,
2.05916667,258.8182068,
2.060833454,259.0725403,
2.0625,259.7890015,
2.064166546,259.6451416,
2.06583333,258.5347595,
2.067500114,260.2636719,
2.06916666,258.8297729,
2.070833445,259.762207,
2.07249999,259.9796448,
2.074166775,260.0711365,
2.075833321,259.7885132,
2.077500105,257.7462463,
2.079166651,259.5046692,
2.080833197,259.5206604,
2.082499981,259.1592102,
2.084166765,258.6562805,
2.085833311,259.7451782,
2.087500095,259.1161804,
2.089166641,259.2047119,
2.090833426,260.0235291,
2.092499971,258.5751038,
2.094166756,258.8620605,
2.095833302,258.629364,
2.097500086,260.2541809,
2.099166632,259.0939941,
2.100833416,258.9111633,
2.102499962,258.27771,
2.104166746,258.2887268,
2.105833292,260.3468628,
2.107500076,260.0594788,
2.109166622,261.3913879,
2.110833406,260.7560425,
2.112499952,257.4223633,
2.114166737,259.2652893,
2.115833521,259.0772705,
2.117500067,258.5313721,
2.119166613,261.1484375,
2.120833397,259.5628357,
2.122499943,259.3947144,
2.124166727,260.0492554,
2.125833273,260.0200806,
2.127500057,258.473053,
2.129166603,258.983551,
2.130833387,259.2053528,
2.132500172,259.700531,
2.134166718,258.6752014,
2.135833502,258.3946228,
2.137500048,257.8569641,
2.139166832,258.1273193,
2.140833378,259.632019,
2.142500162,259.8431396,
2.144166708,260.7218628,
2.145833254,259.1352234,
2.147500038,259.1081848,
2.149166584,259.1838989,
2.150833368,259.4046021,
2.152500153,259.710907,
2.154166698,256.6785583,
2.155833483,223.7017822,
2.157500029,222.3373413,
2.159166813,219.708847,
2.160833597,218.2642975,
2.162499905,212.1954651,
2.164166689,204.5125885,
2.165833235,203.3772125,
2.167500019,192.7101288,
2.169166803,192.5765686,
2.170833349,201.0280457,
2.172500134,245.7766266,
2.174166679,242.400528,
2.175833464,240.4389496,
2.177500248,239.9285889,
2.179166555,242.2274933,
2.18083334,241.456604,
2.182499886,240.8631592,
2.18416667,241.1607361,
2.185833454,224.360733,
2.1875,195.7152557,
2.189166784,197.8648529,
2.19083333,198.1864471,
2.192500114,235.4963226,
2.194166899,236.7886353,
2.195833445,221.5956421,
2.19749999,219.291748,
2.199166536,237.99646,
2.200833321,220.2138824,
2.202500105,225.6905518,
2.204166651,227.6469574,
2.205833435,211.7382202,
2.207499981,219.5581055,
2.209166765,224.9588318,
2.210833549,219.0437012,
2.212500095,213.4867401,
2.21416688,222.0340729,
2.215833187,237.0185089,
2.217499971,236.0036316,
2.219166756,237.2778931,
2.220833302,234.2502136,
2.222500086,234.8664246,
2.224166632,232.1227417,
2.225833416,232.6021881,
2.2275002,231.9511108,
2.229166746,231.4304962,
2.23083353,230.1578217,
2.232499838,229.4254913,
2.234166622,228.4095612,
2.235833406,228.8613129,
2.237499952,228.6897736,
2.239166737,227.8032074,
2.240833282,226.027359,
2.242500067,225.7638092,
2.244166851,226.699234,
2.245833397,225.6799011,
2.247500181,225.3135834,
2.249166727,225.4210968,
2.250833273,223.5376892,
2.252500057,224.2186737,
2.254166603,223.112442,
2.255833387,223.0352325,
2.257499933,221.9112396,
2.259166718,220.3602905,
2.260833502,220.0543671,
2.262500048,220.990097,
2.264166832,220.2676392,
2.265833378,220.2380371,
2.267500162,220.1248474,
2.269166708,218.6432343,
2.270833254,217.9556274,
2.272500038,218.0328217,
2.274166584,217.0642548,
2.275833368,217.6916962,
2.277500153,218.3425446,
2.279166698,217.4175873,
2.280833483,216.9001465,
2.282500029,217.661438,
2.284166813,216.6921844,
2.285833597,215.7908325,
2.287499905,215.8012085,
2.289166689,215.5496979,
2.290833235,215.2393951,
2.292500019,215.2034912,
2.294166803,214.3053436,
2.295833349,213.9527588,
2.297500134,214.8386078,
2.299166679,213.5816803,
2.300833464,212.5128937,
2.302500248,215.0029297,
2.304166555,214.6253662,
2.30583334,213.6732635,
2.307499886,214.7309418,
2.30916667,213.2770386,
2.310833454,212.352005,
2.3125,212.2044373,
2.314166784,212.9015808,
2.31583333,211.1510315,
2.317500114,212.8342743,
2.319166899,212.0043945,
2.320833445,211.6294708,
2.32249999,211.9900665,
2.324166536,211.5862274,
2.325833321,211.9004364,
2.327500105,210.9340973,
2.329166651,209.7189636,
2.330833435,211.2667236,
2.332499981,211.6072693,
2.334166765,209.6833038,
2.335833549,211.6342163,
2.337500095,210.8106537,
2.33916688,208.642807,
2.340833187,208.7254944,
2.342499971,209.0098267,
2.344166756,208.3409576,
2.345833302,209.310791,
2.347500086,210.1373749,
2.349166632,208.4398193,
2.350833416,209.5106506,
2.3525002,209.3622894,
2.354166746,210.0932159,
2.35583353,208.8566284,
2.357499838,209.7677155,
2.359166622,206.3732605,
2.360833406,208.3543549,
2.362499952,207.0798492,
2.364166737,207.6222382,
2.365833282,209.090744,
2.367500067,205.8687592,
2.369166851,207.7322235,
2.370833397,208.1390686,
2.372500181,207.8942566,
2.374166727,207.4777832,
2.375833273,206.3953247,
2.377500057,206.1694946,
2.379166603,206.4086914,
2.380833387,206.9390564,
2.382499933,207.2621307,
2.384166718,206.5292206,
2.385833502,206.0248108,
2.387500048,206.624527,
2.389166832,204.7155609,
2.390833378,207.7479858,
2.392500162,204.6830139,
2.394166708,206.1547546,
2.395833254,205.0557098,
2.397500038,205.3655853,
2.399166584,205.6691437,
2.400833368,205.3031616,
2.402500153,204.9393616,
2.404166698,205.8271484,
2.405833483,205.1865234,
2.407500029,205.8302612,
2.409166813,205.4493713,
2.410833597,203.9565887,
2.412499905,204.0357666,
2.414166689,205.1304932,
2.415833235,204.7066498,
2.417500019,204.7821655,
2.419166803,202.9648438,
2.420833349,204.5454559,
2.422500134,203.6056366,
2.424166679,203.7922668,
2.425833464,205.1609497,
2.427500248,203.4699707,
2.429166555,203.165802,
2.43083334,204.3090973,
2.432499886,205.0199738,
2.43416667,203.0423126,
2.435833454,204.2129974,
2.4375,204.9546051,
2.439166784,203.5078888,
2.44083333,204.5580139,
2.442500114,202.4054871,
2.444166899,202.8778687,
2.445833445,202.5496979,
2.44749999,205.1963348,
2.449166536,203.316803,
2.450833321,203.0840912,
2.452500105,203.7787323,
2.454166651,203.5049133,
2.455833435,203.5671844,
2.457499981,203.2810822,
2.459166765,202.4022064,
2.460833549,203.0739136,
2.462500095,202.1983948,
2.46416688,202.9361572,
2.465833187,203.0806274,
2.467499971,201.5016937,
2.469166756,202.0552979,
2.470833302,201.0158234,
2.472500086,202.5788727,
2.474166632,202.4150543,
2.475833416,201.5525208,
2.4775002,201.8434143,
2.479166746,201.5344238,
2.48083353,201.9775848,
2.482499838,202.35849,
2.484166622,201.2494812,
2.485833406,201.0225525,
2.487499952,202.0562439,
2.489166737,201.0346527,
2.490833282,202.7357483,
2.492500067,201.4877167,
2.494166851,201.3053436,
2.495833397,202.0023804,
2.497500181,201.0916901,
2.499166727,200.9305573,
2.500833273,201.7710571,
2.502500057,200.8283081,
2.504166603,200.882019,
2.505833387,200.310791,
2.507499933,201.2409668,
2.509166718,200.6737366,
2.510833502,200.0121307,
2.512500048,197.7354431,
2.514166832,201.5816803,
2.515833378,201.9443512,
2.517500162,200.0873566,
2.519166708,200.5453644,
2.520833254,200.8003998,
2.522500038,200.7757721,
2.524166584,200.1970367,
2.525833368,201.6741028,
2.527500153,201.5926056,
2.529166698,198.7445679,
2.530833483,199.3780365,
2.532500029,199.680542,
2.534166813,200.403656,
2.535833597,200.6396027,
2.537499905,198.8778687,
2.539166689,199.2575684,
2.540833235,200.264679,
2.542500019,200.4210815,
2.544166803,199.4469604,
2.545833349,199.379776,
2.547500134,198.2834473,
2.549166679,199.1095428,
2.550833464,201.1881866,
2.552500248,200.7977905,
2.554166555,198.4645844,
2.55583334,198.7153015,
2.557499886,199.1562195,
2.55916667,198.5834961,
2.560833454,198.3856201,
2.5625,201.0003967,
2.564166784,199.4657898,
2.56583333,201.9439545,
2.567500114,198.9539795,
2.569166899,200.9554291,
2.570833445,199.1880035,
2.57249999,199.9286346,
2.574166536,200.1074829,
2.575833321,198.3944397,
2.577500105,199.0755463,
2.579166651,200.7246246,
2.580833435,198.4265594,
2.582499981,200.1720581,
2.584166765,199.6942139,
2.585833549,199.2085571,
2.587500095,199.8637543,
2.58916688,198.8797607,
2.590833187,199.1974487,
2.592499971,200.4372406,
2.594166756,199.2137756,
2.595833302,198.3860016,
2.597500086,198.6057281,
2.599166632,198.6607971,
2.600833416,198.6375427,
2.6025002,198.1239319,
2.604166746,197.5170135,
2.60583353,198.933548,
2.607499838,198.5152588,
2.609166622,197.9780884,
2.610833406,200.3917847,
2.612499952,198.6304626,
2.614166737,198.4478455,
2.615833282,197.6325989,
2.617500067,199.3900146,
2.619166851,199.15448,
2.620833397,197.5076904,
2.622500181,199.7333984,
2.624166727,198.5469055,
2.625833273,198.4550781,
2.627500057,199.0410309,
2.629166603,197.9015198,
2.630833387,198.1079254,
2.632499933,198.2117767,
2.634166718,198.5706787,
2.635833502,199.5811005,
2.637500048,198.1683044,
2.639166832,198.5549164,
2.640833378,198.7493744,
2.642500162,196.9245911,
2.644166708,199.5553741,
2.645833254,196.4605408,
2.647500038,198.0391846,
2.649166584,197.4683075,
2.650833368,197.5668488,
2.652500153,197.4103851,
2.654166698,197.9446411,
2.655833483,197.9803772,
2.657500029,198.3171997,
2.659166813,197.663269,
2.660833597,197.3490753,
2.662499905,196.9080353,
2.664166689,197.7260132,
2.665833235,196.7422333,
2.667500019,197.5056915,
2.669166803,197.4389801,
2.670833349,197.1101379,
2.672500134,198.5363617,
2.674166679,196.8037262,
2.675833464,197.4253693,
2.677500248,198.9502106,
2.679166555,196.983139,
2.68083334,196.1217651,
2.682499886,197.2642212,
2.68416667,197.1922455,
2.685833454,196.6828766,
2.6875,198.0856323,
2.689166784,197.1125641,
2.69083333,197.5730896,
2.692500114,197.495636,
2.694166899,198.3464203,
2.695833445,198.6027985,
2.69749999,197.4219818,
2.699166536,198.0031586,
2.700833321,196.383667,
2.702500105,196.4857025,
2.704166651,197.5832214,
2.705833435,196.7754822,
2.707499981,198.1713562,
2.709166765,196.471344,
2.710833549,196.9844513,
2.712500095,197.2610016,
2.71416688,196.8575134,
2.715833187,196.9343567,
2.717499971,196.3082581,
2.719166756,197.2222137,
2.720833302,196.9029694,
2.722500086,198.585556,
2.724166632,196.799057,
2.725833416,196.4478302,
2.7275002,196.5402527,
2.729166746,197.2472229,
2.73083353,196.6680298,
2.732499838,198.1225586,
2.734166622,196.5407562,
2.735833406,198.4585571,
2.737499952,196.4393921,
2.739166737,197.4797211,
2.740833282,195.8941498,
2.742500067,196.3744049,
2.744166851,195.9480896,
2.745833397,195.740097,
2.747500181,197.0505066,
2.749166727,198.3203888,
2.750833273,197.249527,
2.752500057,196.1299591,
2.754166603,197.6418762,
2.755833387,196.6704712,
2.757499933,197.9359436,
2.759166718,195.408432,
2.760833502,196.0702362,
2.762500048,197.1687622,
2.764166832,195.6213226,
2.765833378,196.6177063,
2.767500162,195.3695984,
2.769166708,196.7446136,
2.770833254,195.1038666,
2.772500038,196.0767975,
2.774166584,195.8387604,
2.775833368,196.7770996,
2.777500153,197.1647797,
2.779166698,195.9683228,
2.780833483,196.7350159,
2.782500029,195.5930786,
2.784166813,195.3472137,
2.785833597,195.4447937,
2.787499905,195.5741119,
2.789166689,196.8425293,
2.790833235,196.1634979,
2.792500019,195.6888885,
2.794166803,195.6862946,
2.795833349,195.49263,
2.797500134,196.0567474,
2.799166679,195.8700256,
2.800833464,195.6430817,
2.802500248,196.2660522,
2.804166555,196.4883728,
2.80583334,195.3008881,
2.807499886,196.3878326,
2.80916667,196.1443939,
2.810833454,195.6309967,
2.8125,196.4488525,
2.814166784,195.8359833,
2.81583333,196.1479187,
2.817500114,194.7747955,
2.819166899,197.5571289,
2.820833445,196.2257996,
2.82249999,195.3219299,
2.824166536,195.0157928,
2.825833321,195.8465118,
2.827500105,194.6713104,
2.829166651,196.9153595,
2.830833435,195.6490479,
2.832499981,196.5539856,
2.834166765,194.5652771,
2.835833549,196.2863922,
2.837500095,195.3191223,
2.83916688,195.126297,
2.840833187,196.5914001,
2.842499971,195.7610016,
2.844166756,196.9604187,
2.845833302,194.7709198,
2.847500086,194.8959045,
2.849166632,195.4373016,
2.850833416,196.2338409,
2.8525002,196.4907532,
2.854166746,194.6448212,
2.85583353,196.2565613,
2.857499838,195.1644135,
2.859166622,196.12677,
2.860833406,196.1062927,
2.862499952,195.5048218,
2.864166737,195.7791748,
2.865833282,193.7554932,
2.867500067,195.5063477,
2.869166851,194.4290466,
2.870833397,194.3936768,
2.872500181,195.1301422,
2.874166727,194.8471375,
2.875833273,193.7444153,
2.877500057,196.1015167,
2.879166603,195.2506104,
2.880833387,195.027832,
2.882499933,193.5764618,
2.884166718,194.4250641,
2.885833502,195.5280304,
2.887500048,193.6386719,
2.889166832,193.6989899,
2.890833378,196.0107117,
2.892500162,194.6427155,
2.894166708,197.0062408,
2.895833254,195.0282745,
2.897500038,195.5484009,
2.899166584,195.3136139,
2.900833368,195.1072235,
2.902500153,196.101593,
2.904166698,196.1354065,
2.905833483,194.4330444,
2.907500029,194.5844879,
2.909166813,194.4314117,
2.910833597,194.8416138,
2.912499905,194.1692505,
2.914166689,194.7301941,
2.915833235,196.1128082,
2.917500019,195.5762939,
2.919166803,195.9944,
2.920833349,195.0407104,
2.922500134,195.4595337,
2.924166679,195.4866028,
2.925833464,194.5560303,
2.927500248,193.1140594,
2.929166555,193.9456329,
2.93083334,194.6285553,
2.932499886,195.6012726,
2.93416667,195.5344391,
2.935833454,196.0332642,
2.9375,194.6116028,
2.939166784,195.7770538,
2.94083333,194.8076019,
2.942500114,193.9264679,
2.944166899,194.9562073,
2.945833445,194.5760345,
2.94749999,194.700882,
2.949166536,194.8795166,
2.950833321,195.4890289,
2.952500105,195.258667,
2.954166651,194.1170502,
2.955833435,193.1010895,
2.957499981,193.2922821,
2.959166765,193.2607727,
2.960833549,195.2839203,
2.962500095,193.5670319,
2.96416688,193.3693237,
2.965833187,195.6799469,
2.967499971,192.9668121,
2.969166756,194.8504028,
2.970833302,193.967514,
2.972500086,193.7534485,
2.974166632,193.5648804,
2.975833416,194.5314636,
2.9775002,194.2579193,
2.979166746,192.5969238,
2.98083353,193.5740662,
2.982499838,194.0288086,
2.984166622,193.9112549,
2.985833406,195.0514832,
2.987499952,194.0848541,
2.989166737,194.5815277,
2.990833282,193.0317993,
2.992500067,194.8457642,
2.994166851,193.4454803,
2.995833397,196.0652313,
2.997500181,194.0701294,
2.999166727,195.1268158,
3.000833273,195.2980804,
3.002500057,194.4801788,
3.004166603,194.2975464,
3.005833387,194.1950684,
3.007499933,195.3233337,
3.009166718,194.9315491,
3.010833502,194.161438,
3.012500048,194.2499847,
3.014166832,194.1403656,
3.015833378,193.6532745,
3.017500162,193.9375,
3.019166708,193.3945923,
3.020833254,194.0647583,
3.022500038,194.2516479,
3.024166584,195.2091217,
3.025833368,194.0219421,
3.027500153,193.3623199,
3.029166698,194.5727997,
3.030833483,193.2916565,
3.032500029,194.3517456,
3.034166813,194.694809,
3.035833597,193.9262543,
3.037499905,194.0777893,
3.039166689,194.2764893,
3.040833235,194.2863922,
3.042500019,193.1605225,
3.044166803,194.5364227,
3.045833349,193.7581024,
3.047500134,193.2272644,
3.049166679,193.8802795,
3.050833464,194.1281891,
3.052500248,193.7278595,
3.054166555,193.4544678,
3.05583334,194.1617584,
3.057499886,196.2036438,
3.05916667,194.8744659,
3.060833454,193.6199341,
3.0625,193.3904724,
3.064166784,194.3831635,
3.06583333,193.4210358,
3.067500114,194.4091644,
3.069166899,194.1354065,
3.070833445,193.9897919,
3.07249999,194.5792236,
3.074166536,193.9027863,
3.075833321,194.4451141,
3.077500105,195.0203857,
3.079166651,195.3056488,
3.080833435,194.2759399,
3.082499981,193.8502045,
3.084166765,193.4230957,
3.085833549,192.2865448,
3.087500095,194.1568298,
3.08916688,194.5325928,
3.090833187,193.7310181,
3.092499971,195.5677795,
3.094166756,193.2757721,
3.095833302,195.7216187,
3.097500086,195.1180267,
3.099166632,193.8301849,
3.100833416,193.6236725,
3.1025002,195.3641815,
3.104166746,194.829483,
3.10583353,193.571228,
3.107499838,193.565567,
3.109166622,195.1988068,
3.110833406,193.4507446,
3.112499952,195.2043304,
3.114166737,194.0176544,
3.115833282,193.4909973,
3.117500067,194.0998077,
3.119166851,193.3163452,
3.120833397,192.353363,
3.122500181,193.4508362,
3.124166727,193.7664185,
3.125833273,194.2828522,
3.127500057,194.826889,
3.129166603,194.6354218,
3.130833387,194.0921478,
3.132499933,193.2470703,
3.134166718,195.1582336,
3.135833502,193.224472,
3.137500048,193.3437958,
3.139166832,193.5401459,
3.140833378,193.893631,
3.142500162,193.7219391,
3.144166708,193.6558533,
3.145833254,194.1864929,
3.147500038,193.7071533,
3.149166584,193.0450592,
3.150833368,193.9551239,
3.152500153,193.2012024,
3.154166698,193.7615204,
3.155833483,194.9337921,
3.157500029,192.5481873,
3.159166813,193.5184631,
3.160833597,193.4515686,
3.162499905,195.2983246,
3.164166689,193.7350769,
3.165833235,193.4902649,
3.167500019,193.4806213,
3.169166803,192.9731598,
3.170833349,194.2667542,
3.172500134,193.3392029,
3.174166679,193.4148407,
3.175833464,194.2389526,
3.177500248,193.342514,
3.179166555,194.3534393,
3.18083334,194.9232178,
3.182499886,194.0014343,
3.18416667,194.9637299,
3.185833454,194.5592194,
3.1875,192.801651,
3.189166784,193.5366516,
3.19083333,193.7467804,
3.192500114,194.303772,
3.194166899,193.2424927,
3.195833445,193.9706726,
3.19749999,194.0161285,
3.199166536,195.6303406,
3.200833321,193.8754578,
3.202500105,193.0707092,
3.204166651,193.6550598,
3.205833435,193.8763275,
3.207499981,194.5852051,
3.209166765,192.6239777,
3.210833549,193.1378021,
3.212500095,193.8800049,
3.21416688,194.1365662,
3.215833187,191.890625,
3.217499971,192.8235931,
3.219166756,194.0513153,
3.220833302,193.0105286,
3.222500086,192.1210022,
3.224166632,192.6999054,
3.225833416,194.4542694,
3.2275002,194.2211609,
3.229166746,191.5762482,
3.23083353,193.4261322,
3.232499838,193.8795624,
3.234166622,193.2365112,
3.235833406,192.4175415,
3.237499952,193.6741028,
3.239166737,193.094986,
3.240833282,191.2678375,
3.242500067,191.7811432,
3.244166851,192.728363,
3.245833397,194.1524353,
3.247500181,192.2453918,
3.249166727,191.4567566,
3.250833273,194.0993652,
3.252500057,192.6946411,
3.254166603,193.567688,
3.255833387,192.6363068,
3.257499933,192.4337921,
3.259166718,193.1608429,
3.260833502,192.4160614,
3.262500048,192.7603455,
3.264166832,192.8994446,
3.265833378,192.9293976,
3.267500162,193.3214722,
3.269166708,192.7145233,
3.270833254,193.9505463,
3.272500038,191.2348785,
3.274166584,191.3940125,
3.275833368,193.3740234,
3.277500153,193.0243073,
3.279166698,190.9145966,
3.280833483,192.4935913,
3.282500029,193.7871094,
3.284166813,192.2355042,
3.285833597,192.8374786,
3.287499905,191.8061676,
3.289166689,192.5979309,
3.290833235,193.4312439,
3.292500019,192.4028625,
3.294166803,192.7002563,
3.295833349,194.2998199,
3.297500134,193.8477783,
3.299166679,192.6684418,
3.300833464,191.1681061,
3.302500248,192.8645935,
3.304166555,192.5239716,
3.30583334,192.6252899,
3.307499886,192.9096222,
3.30916667,192.7735443,
3.310833454,194.1212616,
3.3125,194.5352936,
3.314166784,193.0760651,
3.31583333,193.3981781,
3.317500114,194.1983948,
3.319166899,192.3522034,
3.320833445,192.4153137,
3.32249999,192.2731171,
3.324166536,195.217453,
3.325833321,192.2118683,
3.327500105,193.6607819,
3.329166651,191.8518219,
3.330833435,195.5089111,
3.332499981,193.7518768,
3.334166765,193.3598938,
3.335833549,192.9412994,
3.337500095,193.2434845,
3.33916688,192.8030853,
3.340833187,192.8327942,
3.342499971,193.2661285,
3.344166756,193.4930115,
3.345833302,192.6047974,
3.347500086,193.169632,
3.349166632,193.3193207,
3.350833416,192.2150116,
3.3525002,191.6485748,
3.354166746,193.4505615,
3.35583353,191.6782227,
3.357499838,193.4596405,
3.359166622,193.0296326,
3.360833406,193.0958557,
3.362499952,193.708786,
3.364166737,192.7909546,
3.365833282,191.8457184,
3.367500067,192.4390411,
3.369166851,192.983078,
3.370833397,193.0309448,
3.372500181,194.0049896,
3.374166727,192.8862,
3.375833273,193.8935699,
3.377500057,191.982193,
3.379166603,193.4295807,
3.380833387,192.6289825,
3.382499933,193.8336945,
3.384166718,191.7500305,
3.385833502,191.5235596,
3.387500048,192.1567078,
3.389166832,193.9324646,
3.390833378,191.9791565,
3.392500162,192.0416718,
3.394166708,191.8054962,
3.395833254,193.0348053,
3.397500038,192.8848877,
3.399166584,192.177887,
3.400833368,193.641449,
3.402500153,191.8416595,
3.404166698,193.0006256,
3.405833483,192.514267,
3.407500029,191.6533508,
3.409166813,191.7478638,
3.410833597,192.5620728,
3.412499905,191.6818085,
3.414166689,192.6328888,
3.415833235,193.3177338,
3.417500019,192.2340698,
3.419166803,193.2508545,
3.420833349,192.0813446,
3.422500134,193.0569305,
3.424166679,192.4028015,
3.425833464,192.4083862,
3.427500248,192.8321838,
3.429166555,191.7306213,
3.43083334,191.3738403,
3.432499886,193.1356201,
3.43416667,191.8575134,
3.435833454,192.3010712,
3.4375,191.8766022,
3.439166784,192.4842224,
3.44083333,192.2392426,
3.442500114,193.582962,
3.444166899,191.815094,
3.445833445,192.1716461,
3.44749999,192.4516602,
3.449166536,193.3194427,
3.450833321,192.7206726,
3.452500105,192.5792694,
3.454166651,191.3825684,
3.455833435,192.0861969,
3.457499981,192.3305206,
3.459166765,190.8829651,
3.460833549,193.7678375,
3.462500095,193.1214752,
3.46416688,192.9721527,
3.465833187,193.7281799,
3.467499971,193.5722961,
3.469166756,192.595932,
3.470833302,192.8760681,
3.472500086,191.9890289,
3.474166632,192.702774,
3.475833416,191.6070862,
3.4775002,192.7727814,
3.479166746,193.3262024,
3.48083353,192.2668152,
3.482499838,192.3345642,
3.484166622,191.4902496,
3.485833406,192.6432953,
3.487499952,192.1779022,
3.489166737,192.6852875,
3.490833282,191.4266663,
3.492500067,192.0518799,
3.494166851,193.2444305,
3.495833397,192.6490936,
3.497500181,193.2185669,
3.499166727,193.0104218,
3.500833273,193.4735718,
3.502500057,192.5259247,
3.504166603,191.8708801,
3.505833387,192.9247589,
3.507499933,192.4272919,
3.509166718,191.5244904,
3.510833502,192.5342865,
3.512500048,192.119339,
3.514166832,193.9424896,
3.515833378,191.2729034,
3.517500162,192.299469,
3.519166708,193.0984192,
3.520833254,191.6185303,
3.522500038,192.5966797,
3.524166584,193.3274078,
3.525833368,193.5868073,
3.527500153,191.5160522,
3.529166698,192.0349121,
3.530833483,192.4123688,
3.532500029,191.4194183,
3.534166813,192.6703339,
3.535833597,191.7384796,
3.537499905,192.3943481,
3.539166689,190.6569824,
3.540833235,192.5079193,
3.542500019,193.625473,
3.544166803,192.6740112,
3.545833349,192.4623108,
3.547500134,190.7169189,
3.549166679,192.5499268,
3.550833464,190.7190247,
3.552500248,190.8766785,
3.554166555,191.0575104,
3.55583334,191.6117706,
3.557499886,191.1884613,
3.55916667,192.5327606,
3.560833454,191.7707367,
3.5625,192.5529785,
3.564166784,191.0554962,
3.56583333,193.312088,
3.567500114,191.8200226,
3.569166899,192.5401306,
3.570833445,192.4347839,
3.57249999,193.1391602,
3.574166536,192.165329,
3.575833321,193.1834259,
3.577500105,191.897171,
3.579166651,191.6461487,
3.580833435,191.740921,
3.582499981,191.3231354,
3.584166765,191.7160187,
3.585833549,192.0142365,
3.587500095,191.8488922,
3.58916688,192.144516,
3.590833187,191.9781647,
3.592499971,190.9426422,
3.594166756,192.0828094,
3.595833302,192.4183502,
3.597500086,191.6871338,
3.599166632,192.8994598,
3.600833416,192.8553772,
3.6025002,192.3666992,
3.604166746,191.263382,
3.60583353,192.9812317,
3.607499838,192.2106323,
3.609166622,193.8627014,
3.610833406,191.9290009,
3.612499952,192.9202271,
3.614166737,192.5865326,
3.615833282,190.9638672,
3.617500067,190.2353058,
3.619166851,192.317688,
3.620833397,191.8063049,
3.622500181,192.3719025,
3.624166727,192.1381989,
3.625833273,192.0159149,
3.627500057,191.9717407,
3.629166603,192.105957,
3.630833387,192.3838196,
3.632499933,192.0515137,
3.634166718,191.9758148,
3.635833502,191.4096069,
3.637500048,191.7018127,
3.639166832,192.4727325,
3.640833378,191.47612,
3.642500162,192.3827667,
3.644166708,190.6820831,
3.645833254,191.2684326,
3.647500038,192.2974854,
3.649166584,192.1204681,
3.650833368,192.3860016,
3.652500153,191.4254608,
3.654166698,193.2594604,
3.655833483,192.2744751,
3.657500029,191.1182709,
3.659166813,192.8353729,
3.660833597,191.1847687,
3.662499905,192.6900024,
3.664166689,191.0662384,
3.665833235,190.0428772,
3.667500019,190.952774,
3.669166803,190.3705902,
3.670833349,191.4796753,
3.672500134,190.976181,
3.674166679,191.8677673,
3.675833464,191.721405,
3.677500248,192.3598633,
3.679166555,192.2296295,
3.68083334,192.0360413,
3.682499886,191.2018585,
3.68416667,192.0319977,
3.685833454,191.4205933,
3.6875,191.8350372,
3.689166784,191.8254395,
3.69083333,190.9958649,
3.692500114,191.8547668,
3.694166899,191.7322693,
3.695833445,191.8427734,
3.69749999,191.4868317,
3.699166536,192.4467926,
3.700833321,191.5116119,
3.702500105,190.4719391,
3.704166651,191.9825134,
3.705833435,191.7153931,
3.707499981,190.8279419,
3.709166765,190.3921661,
3.710833549,192.3469086,
3.712500095,192.1593781,
3.71416688,191.6197968,
3.715833187,191.0080566,
3.717499971,192.2588501,
3.719166756,192.3522949,
3.720833302,190.6421509,
3.722500086,192.3309937,
3.724166632,192.5314178,
3.725833416,191.9409637,
3.7275002,192.0339813,
3.729166746,191.8673096,
3.73083353,190.7642365,
3.732499838,192.3759155,
3.734166622,190.9482727,
3.735833406,192.1403656,
3.737499952,192.3118286,
3.739166737,191.2709198,
3.740833282,191.7127533,
3.742500067,191.3320313,
3.744166851,191.1731262,
3.745833397,191.5704041,
3.747500181,190.9574432,
3.749166727,192.2612762,
3.750833273,191.2436218,
3.752500057,191.9923553,
3.754166603,191.8217316,
3.755833387,191.4277039,
3.757499933,191.5049133,
3.759166718,190.8388214,
3.760833502,191.716156,
3.762500048,192.1549835,
3.764166832,193.1776428,
3.765833378,191.5302734,
3.767500162,191.4719696,
3.769166708,193.5058136,
3.770833254,191.1438141,
3.772500038,191.8435516,
3.774166584,191.3462219,
3.775833368,191.0185547,
3.777500153,191.5800018,
3.779166698,191.2580566,
3.780833483,191.4747314,
3.782500029,192.7705078,
3.784166813,192.2055359,
3.785833597,190.9029083,
3.787499905,192.4210052,
3.789166689,191.411499,
3.790833235,192.8344269,
3.792500019,191.6380157,
3.794166803,191.0608215,
3.795833349,191.768158,
3.797500134,190.7079163,
3.799166679,191.7001801,
3.800833464,192.2231445,
3.802500248,191.0900269,
3.804166555,192.2399139,
3.80583334,191.3555756,
3.807499886,193.64151,
3.80916667,191.4794006,
3.810833454,192.4666443,
3.8125,191.1604614,
3.814166784,190.790329,
3.81583333,192.1269989,
3.817500114,191.4591675,
3.819166899,191.2542877,
3.820833445,191.2665405,
3.82249999,192.0506744,
3.824166536,191.5501404,
3.825833321,191.7921448,
3.827500105,192.2324524,
3.829166651,191.1755219,
3.830833435,191.3610687,
3.832499981,191.8132172,
3.834166765,192.1411133,
3.835833549,192.243103,
3.837500095,192.1749725,
3.83916688,192.0804291,
3.840833187,190.5807495,
3.842499971,191.355011,
3.844166756,191.7913055,
3.845833302,192.4610596,
3.847500086,192.7021637,
3.849166632,191.0795135,
3.850833416,193.5015869,
3.8525002,191.1013641,
3.854166746,191.9133606,
3.85583353,191.0365448,
3.857499838,190.894043,
3.859166622,190.8489685,
3.860833406,193.0178528,
3.862499952,191.4188385,
3.864166737,191.5615082,
3.865833282,192.0030518,
3.867500067,191.6845703,
3.869166851,191.2673035,
3.870833397,192.4462891,
3.872500181,191.9604797,
3.874166727,191.7914734,
3.875833273,192.3272858,
3.877500057,191.6769867,
3.879166603,191.7155457,
3.880833387,192.5629425,
3.882499933,191.5374451,
3.884166718,190.8343964,
3.885833502,193.1121674,
3.887500048,190.6154785,
3.889166832,193.1174316,
3.890833378,191.4954681,
3.892500162,190.561676,
3.894166708,190.309082,
3.895833254,191.4857941,
3.897500038,190.8123322,
3.899166584,190.7887268,
3.900833368,191.513443,
3.902500153,190.8369141,
3.904166698,190.8572693,
3.905833483,191.5944672,
3.907500029,190.8083191,
3.909166813,191.1192322,
3.910833597,190.1091003,
3.912499905,191.0913239,
3.914166689,191.2862396,
3.915833235,191.5743408,
3.917500019,191.9771729,
3.919166803,192.0266876,
3.920833349,192.5084076,
3.922500134,190.9928131,
3.924166679,192.121994,
3.925833464,191.9766998,
3.927500248,190.6315308,
3.929166555,191.5649872,
3.93083334,191.2575836,
3.932499886,191.3911133,
3.93416667,191.7260742,
3.935833454,192.3303223,
3.9375,191.3036041,
3.939166784,191.6592407,
3.94083333,191.1973267,
3.942500114,191.9003906,
3.944166899,191.5914307,
3.945833445,192.315094,
3.94749999,191.5180664,
3.949166536,192.4558716,
3.950833321,191.8144836,
3.952500105,191.6290436,
3.954166651,191.5934906,
3.955833435,190.9155884,
3.957499981,190.5072479,
3.959166765,190.7019043,
3.960833549,191.1220398,
3.962500095,191.2297821,
3.96416688,192.3488464,
3.965833187,192.0875244,
3.967499971,192.5280304,
3.969166756,192.2513885,
3.970833302,191.0116577,
3.972500086,191.547821,
3.974166632,191.0226746,
3.975833416,191.1808472,
3.9775002,191.4832764,
3.979166746,192.1516876,
3.98083353,192.0291138,
3.982499838,191.1451111,
3.984166622,191.8264465,
3.985833406,191.4074097,
3.987499952,190.8185883,
3.989166737,190.387085,
3.990833282,192.5464783,
3.992500067,191.8601227,
3.994166851,192.1359558,
3.995833397,191.3027039,
3.997500181,191.8176422,
3.999166727,192.2697144,
4.000833511,190.9328461,
4.002500057,190.7057648,
4.004166603,190.7317963,
4.005833626,190.8214722,
4.007500172,191.9720612,
4.009166718,191.2249908,
4.010833263,191.3044434,
4.012499809,191.5461731,
4.014166832,191.7827606,
4.015833378,190.8087158,
4.017499924,190.5275574,
4.019166946,191.2561493,
4.020833492,192.7621155,
4.022500038,191.7437134,
4.024166584,190.7526855,

