1,,
Time (min),Intensity (a.u.),
0.0008333333535,23.34512329,
0.002500000177,23.35033035,
0.004166666884,23.18908501,
0.005833333358,22.81967735,
0.007500000298,22.82076263,
0.009166667238,23.02577782,
0.01083333418,22.93900681,
0.01250000019,23.71510887,
0.01416666713,23.10664558,
0.01583333313,23.03888512,
0.01750000194,22.73646927,
0.01916666701,23.12238884,
0.02083333395,23.0975647,
0.02250000089,22.93624687,
0.02416666783,23.03712273,
0.02583333477,23.29365349,
0.02749999985,22.87964821,
0.02916666679,23.10143852,
0.03083333373,22.97912216,
0.03250000253,23.14023018,
0.03416666761,22.98358154,
0.03583333641,23.23694229,
0.03750000149,22.94353485,
0.03916667029,22.87072945,
0.04083333537,23.2639122,
0.04250000045,22.97960281,
0.04416666925,23.47863579,
0.04583333433,22.89650726,
0.04750000313,23.09379196,
0.04916666821,22.95644188,
0.05083333328,23.09519196,
0.05250000209,23.45353317,
0.05416666716,23.22601318,
0.05583333597,23.4722023,
0.05750000104,23.43885231,
0.05916666612,23.21679115,
0.06083333492,23.22659492,
0.0625,23.02853203,
0.06416667253,23.22716331,
0.0658333376,23.4226799,
0.06750000268,23.12276649,
0.06916666776,22.85028839,
0.07083333284,22.57901192,
0.07249999791,23.06458092,
0.07416667044,23.04991722,
0.07583333552,23.4063282,
0.0775000006,23.28834915,
0.07916666567,23.06225586,
0.08083333075,23.03550911,
0.08250000328,22.95889091,
0.08416666836,23.51767349,
0.08583333343,22.86813545,
0.08749999851,22.96428108,
0.08916666359,23.0327816,
0.09083333611,22.95952034,
0.09250000119,22.98225594,
0.09416666627,23.14071274,
0.09583333135,23.01036263,
0.09749999642,23.27196503,
0.09916666895,23.56465721,
0.100833334,23.17904663,
0.1024999991,23.15003395,
0.1041666642,22.91124535,
0.1058333293,22.85493851,
0.1075000018,22.92640686,
0.1091666669,23.14089775,
0.1108333319,23.03871346,
0.112499997,22.98661804,
0.1141666621,23.2312355,
0.1158333346,23.43122864,
0.1174999997,23.45809174,
0.1191666648,23.06839752,
0.1208333299,23.15896034,
0.1224999949,22.99401093,
0.1241666749,23.47878647,
0.1258333325,23.37530899,
0.1274999976,22.9893322,
0.1291666627,23.05796814,
0.1308333278,23.2257061,
0.1325000077,22.94389725,
0.1341666728,22.96158218,
0.1358333379,23.09205627,
0.137500003,23.50939941,
0.1391666681,23.23821068,
0.1408333331,22.83999825,
0.1424999982,23.05747414,
0.1441666782,23.2456646,
0.1458333284,22.82687759,
0.1475000083,23.43642426,
0.1491666585,23.0859127,
0.1508333385,22.79188538,
0.1525000036,23.23607445,
0.1541666687,22.95874214,
0.1558333337,22.97723389,
0.1574999988,23.31794548,
0.1591666639,23.14812088,
0.1608333439,23.00346375,
0.162499994,22.5147438,
0.164166674,23.08251572,
0.1658333242,22.84140968,
0.1675000042,23.06590652,
0.1691666692,23.25248718,
0.1708333343,23.40388298,
0.1724999994,22.9127655,
0.1741666645,23.39360809,
0.1758333296,23.20166016,
0.1775000095,23.25008583,
0.1791666597,23.29125214,
0.1808333397,23.01877213,
0.1824999899,23.52066612,
0.1841666698,22.8691597,
0.1858333498,23.12800407,
0.1875,23.47370338,
0.18916668,23.55971527,
0.1908333302,22.86828995,
0.1925000101,23.03203201,
0.1941666752,23.15033722,
0.1958333403,23.11533928,
0.1975000054,23.59393311,
0.1991666704,22.81499481,
0.2008333355,23.07738876,
0.2025000155,23.06968498,
0.2041666657,23.12882233,
0.2058333457,22.98513031,
0.2074999958,23.08253479,
0.2091666758,23.50663567,
0.2108333409,23.17848969,
0.212500006,23.46500587,
0.214166671,23.59125137,
0.2158333361,23.3120575,
0.2175000012,23.67388344,
0.2191666812,23.04250526,
0.2208333313,23.06921959,
0.2225000113,23.23570633,
0.2241666615,23.12796783,
0.2258333415,23.53648376,
0.2275000066,23.11071014,
0.2291666716,23.69591141,
0.2308333367,23.47091293,
0.2325000018,23.3572197,
0.2341666669,23.27235222,
0.2358333468,23.20035172,
0.237499997,23.20794678,
0.239166677,23.19331932,
0.2408333272,23.24974442,
0.2425000072,23.38982201,
0.2441666722,22.82752991,
0.2458333373,22.92361069,
0.2475000024,23.31949234,
0.2491666675,22.90384102,
0.2508333325,23.66852951,
0.2524999976,23.13607788,
0.2541666627,22.9455452,
0.2558333278,23.619524,
0.2574999928,23.36614037,
0.2591666579,23.33264351,
0.2608333528,23.09379196,
0.2624999881,23.34507751,
0.264166683,23.00657272,
0.2658333182,22.55415726,
0.2675000131,23.04166985,
0.2691666484,23.28448486,
0.2708333433,22.95901489,
0.2725000083,23.44385338,
0.2741666734,22.9545517,
0.2758333385,23.27254105,
0.2775000036,23.42490387,
0.2791666687,23.53956985,
0.2808333337,23.33361244,
0.2824999988,22.7351284,
0.2841666937,23.24282837,
0.285833329,22.81794357,
0.287499994,22.93448257,
0.2891666591,23.48256493,
0.290833354,22.99086952,
0.2925000191,23.25397873,
0.2941666543,23.27873611,
0.2958333194,23.12758827,
0.2975000143,23.52601242,
0.2991666794,22.9272747,
0.3008333445,23.27277184,
0.3024999797,22.96519852,
0.3041666746,23.20044327,
0.3058333397,22.88880157,
0.3075000048,22.97929955,
0.3091666996,23.09468842,
0.3108333349,23.05424309,
0.3125,23.03002739,
0.3141666651,23.29619789,
0.31583336,23.004076,
0.317500025,23.2097683,
0.3191666603,22.69967651,
0.3208333254,23.16763687,
0.3225000203,23.85792351,
0.3241666853,23.08071327,
0.3258333504,23.35963249,
0.3274999857,23.22807121,
0.3291666806,23.22769165,
0.3308333457,23.49025917,
0.3325000107,23.01028252,
0.3341666758,23.11304092,
0.3358333409,23.24451065,
0.337500006,22.96940613,
0.339166671,23.02947998,
0.3408333361,22.94457245,
0.342500031,22.74233818,
0.3441666663,23.26082039,
0.3458333313,23.19078827,
0.3474999964,23.37688828,
0.3491666913,22.90172768,
0.3508333564,23.04514503,
0.3524999917,23.51775742,
0.3541666567,23.21755219,
0.3558333516,23.53832626,
0.3575000167,23.30579758,
0.3591666818,23.04457092,
0.360833317,23.32313919,
0.3625000119,22.83348083,
0.364166677,23.12643242,
0.3658333421,23.50219536,
0.3675000072,23.71194267,
0.3691666722,23.22217369,
0.3708333373,22.74262047,
0.3725000024,23.10235023,
0.3741666675,23.25301743,
0.3758333623,23.23911667,
0.3774999976,22.87980461,
0.3791666627,23.38238716,
0.3808333278,22.96007729,
0.3825000226,23.10375214,
0.3841666877,23.34754562,
0.385833323,22.8175869,
0.3874999881,23.21800804,
0.389166683,23.21229172,
0.390833348,23.21494102,
0.3925000131,23.44919777,
0.3941666484,22.86179161,
0.3958333433,23.47239685,
0.3975000083,23.19447899,
0.3991666734,22.86853027,
0.4008333385,23.59733391,
0.4025000036,23.35620308,
0.4041666687,23.16706848,
0.4058333337,22.84836578,
0.4074999988,23.50280571,
0.4091666937,23.30199051,
0.410833329,23.2902813,
0.412499994,23.43655586,
0.4141666591,22.7428894,
0.415833354,23.12142181,
0.4175000191,23.29451942,
0.4191666543,23.43122482,
0.4208333194,23.32065582,
0.4225000143,23.10373116,
0.4241666794,23.58156586,
0.4258333445,23.47545624,
0.4274999797,23.16328049,
0.4291666746,23.28701401,
0.4308333397,23.12195969,
0.4325000048,23.77147675,
0.4341666996,22.94773483,
0.4358333349,23.22807884,
0.4375,23.28925705,
0.4391666651,23.3192997,
0.44083336,22.89950752,
0.442500025,23.63399506,
0.4441666603,22.95468903,
0.4458333254,23.29281616,
0.4475000203,23.15952873,
0.4491666853,23.04104996,
0.4508333504,23.26236343,
0.4524999857,22.62620926,
0.4541666806,23.11628723,
0.4558333457,23.09640884,
0.4575000107,23.07901955,
0.4591666758,23.30856323,
0.4608333409,23.28271675,
0.462500006,23.22606277,
0.464166671,23.02552223,
0.4658333361,23.46513176,
0.467500031,23.98496056,
0.4691666663,22.79290009,
0.4708333313,23.21322441,
0.4724999964,23.05298424,
0.4741666913,23.41771317,
0.4758333564,23.3943634,
0.4774999917,23.21955299,
0.4791666567,22.96286774,
0.4808333516,22.8875885,
0.4825000167,23.11814499,
0.4841666818,22.74142838,
0.485833317,23.12742043,
0.4875000119,22.97927666,
0.489166677,23.37524223,
0.4908333421,23.43271255,
0.4925000072,23.34349632,
0.4941666722,23.21553993,
0.4958333373,23.10149574,
0.4975000024,23.01772881,
0.4991666675,23.17834663,
0.5008333325,22.94663239,
0.5024999976,23.19101524,
0.5041666627,23.13387299,
0.5058333278,23.41836929,
0.5074999928,23.54941559,
0.5091666579,22.99293518,
0.510833323,23.64487839,
0.5124999881,23.37008476,
0.5141666532,23.45693398,
0.5158333182,23.49082184,
0.5175000429,23.14230156,
0.5191666484,22.95142746,
0.5208333135,22.97922516,
0.5224999785,23.27979088,
0.5241667032,22.96829414,
0.5258333683,23.16212845,
0.5274999738,23.82383919,
0.5291666389,23.62662315,
0.5308333635,22.84988403,
0.5325000286,22.82996559,
0.5341666341,23.49241638,
0.5358333588,23.19924545,
0.5375000238,22.98683739,
0.5391666889,23.34609413,
0.540833354,23.10633659,
0.5424999595,23.31185722,
0.5441666842,23.38503075,
0.5458333492,23.15888977,
0.5475000143,23.79694939,
0.5491666794,23.2408638,
0.5508333445,23.70058823,
0.5525000095,23.24423027,
0.5541666746,23.24181938,
0.5558333993,23.23231125,
0.5575000048,23.28480911,
0.5591666698,22.91728401,
0.5608333349,23.31782913,
0.5625,23.59407997,
0.5641667247,23.00761223,
0.5658333302,23.51006889,
0.5674999952,23.32504463,
0.5691667199,23.27364349,
0.5708333254,22.99692535,
0.5725000501,23.44036102,
0.5741666555,23.23906708,
0.5758333206,23.34379005,
0.5775000453,22.80104065,
0.5791666508,23.26953506,
0.5808333755,23.35766411,
0.5825000405,23.3803215,
0.584166646,22.99938202,
0.5858333707,23.30406952,
0.5874999762,23.48424911,
0.5891667008,23.39245033,
0.5908333659,23.09898949,
0.5924999714,23.57665443,
0.5941666961,23.46836853,
0.5958333611,23.08266068,
0.5975000262,22.92548561,
0.5991666913,22.73601341,
0.6008332968,23.12992668,
0.6025000215,23.09545517,
0.6041666865,23.36299515,
0.6058333516,23.10609627,
0.6075000167,22.80342865,
0.6091666818,23.00294495,
0.6108333468,23.03653336,
0.6125000119,22.83107948,
0.614166677,23.6116066,
0.6158333421,23.04042435,
0.6175000072,23.57195473,
0.6191666722,23.30641556,
0.6208333373,23.65481567,
0.622500062,22.93911171,
0.6241666675,23.29784203,
0.6258333325,23.17003822,
0.6274999976,23.08645439,
0.6291666627,23.6736927,
0.6308333874,23.64464188,
0.6324999928,22.6988678,
0.6341666579,23.11625671,
0.6358333826,23.12468147,
0.6374999881,23.25057411,
0.6391667128,23.54259491,
0.6408333182,23.1168499,
0.6424999833,23.05826759,
0.644166708,23.11262894,
0.6458333135,23.28304291,
0.6475000381,23.45723534,
0.6491667032,23.31727028,
0.6508333087,23.57239342,
0.6525000334,23.26335144,
0.6541666389,23.21207237,
0.6558333635,22.72232246,
0.6575000286,23.13875198,
0.6591666341,22.9615097,
0.6608333588,23.34705734,
0.6625000238,23.29653549,
0.6641666889,23.34701538,
0.665833354,23.67580032,
0.6674999595,23.05313301,
0.6691666842,23.07842827,
0.6708333492,23.28888512,
0.6725000143,23.45085716,
0.6741666794,23.78966713,
0.6758333445,22.68694115,
0.6775000095,23.26537132,
0.6791666746,23.37427902,
0.6808333993,23.30160904,
0.6825000048,23.67300987,
0.6841666698,23.08286858,
0.6858333349,23.25040245,
0.6875,23.43302536,
0.6891667247,23.04103088,
0.6908333302,22.89735985,
0.6924999952,23.05233383,
0.6941667199,23.05390358,
0.6958333254,23.22904968,
0.6975000501,23.33630753,
0.6991666555,23.19611168,
0.7008333206,23.40936661,
0.7025000453,23.13590813,
0.7041666508,23.03997231,
0.7058333755,23.10100174,
0.7075000405,23.35743904,
0.709166646,23.25289345,
0.7108333707,22.85666275,
0.7124999762,23.33548737,
0.7141667008,23.42890358,
0.7158333659,23.17115211,
0.7174999714,23.39828491,
0.7191666961,23.56520462,
0.7208333611,22.97510719,
0.7225000262,22.87745094,
0.7241666913,23.05315208,
0.7258332968,23.24577904,
0.7275000215,23.29709053,
0.7291666865,23.02353287,
0.7308333516,23.0868206,
0.7325000167,22.39599419,
0.7341666818,23.00491905,
0.7358333468,23.49571609,
0.7375000119,23.11968231,
0.739166677,22.87254333,
0.7408333421,23.64622688,
0.7425000072,22.81297112,
0.7441666722,23.27621269,
0.7458333373,23.26216698,
0.747500062,22.94978333,
0.7491666675,23.33413887,
0.7508333325,22.98328781,
0.7524999976,23.16227341,
0.7541666627,23.33941841,
0.7558333874,23.06755447,
0.7574999928,23.31230736,
0.7591666579,22.91832542,
0.7608333826,23.02761841,
0.7624999881,23.50945091,
0.7641667128,23.09924698,
0.7658333182,23.30861473,
0.7674999833,23.32135391,
0.769166708,23.27628708,
0.7708333135,23.40951347,
0.7725000381,23.05477333,
0.7741667032,22.83866882,
0.7758333087,23.32208633,
0.7775000334,23.00317192,
0.7791666389,23.40789604,
0.7808333635,23.37863159,
0.7825000286,23.39714813,
0.7841666341,23.24597931,
0.7858333588,23.18383408,
0.7875000238,22.90629196,
0.7891666889,22.70240021,
0.790833354,23.42366028,
0.7924999595,23.53164673,
0.7941666842,22.96687317,
0.7958333492,23.24286652,
0.7975000143,23.12082863,
0.7991666794,23.33447266,
0.8008333445,22.81348228,
0.8025000095,23.13388443,
0.8041666746,23.44597054,
0.8058333993,22.80835724,
0.8075000048,23.0843792,
0.8091666698,23.03735161,
0.8108333349,23.03620148,
0.8125,23.34523582,
0.8141667247,23.26966095,
0.8158333302,23.04633331,
0.8174999952,23.04253197,
0.8191667199,23.24541855,
0.8208333254,22.66766167,
0.8225000501,23.0332489,
0.8241666555,23.15576553,
0.8258333206,23.1955719,
0.8275000453,23.21152687,
0.8291666508,22.9560833,
0.8308333755,23.56601715,
0.8325000405,23.00224686,
0.834166646,22.99380493,
0.8358333707,23.11533737,
0.8374999762,23.39949799,
0.8391667008,23.03222656,
0.8408333659,23.10105133,
0.8424999714,23.23412895,
0.8441666961,23.15119934,
0.8458333611,23.66196251,
0.8475000262,23.1000843,
0.8491666913,23.00239182,
0.8508332968,23.35887909,
0.8525000215,23.79744148,
0.8541666865,23.11414337,
0.8558333516,23.32759094,
0.8575000167,22.73135185,
0.8591666818,22.98467445,
0.8608333468,23.59511566,
0.8625000119,23.77504349,
0.864166677,23.29573441,
0.8658333421,22.9246006,
0.8675000072,23.1974659,
0.8691666722,23.16143227,
0.8708333373,22.68938637,
0.872500062,23.12828255,
0.8741666675,23.52622414,
0.8758333325,23.31925011,
0.8774999976,22.96478462,
0.8791666627,23.02952766,
0.8808333874,23.3099823,
0.8824999928,23.18138504,
0.8841666579,22.86196136,
0.8858333826,22.98469734,
0.8874999881,22.91843987,
0.8891667128,22.86060333,
0.8908333182,23.37534714,
0.8924999833,23.75169945,
0.894166708,23.3353405,
0.8958333135,23.13698387,
0.8975000381,23.08228111,
0.8991667032,22.86470032,
0.9008333087,23.60995865,
0.9025000334,22.83831978,
0.9041666389,23.27826691,
0.9058333635,23.1174202,
0.9075000286,23.34903717,
0.9091666341,22.89654541,
0.9108333588,23.39518738,
0.9125000238,23.62814522,
0.9141666889,23.20249176,
0.915833354,23.19639015,
0.9174999595,23.19181442,
0.9191666842,23.19240952,
0.9208333492,23.50643349,
0.9225000143,23.16709518,
0.9241666794,23.19677162,
0.9258333445,22.51390076,
0.9275000095,23.37295151,
0.9291666746,23.36513138,
0.9308333993,23.02106285,
0.9325000048,22.98354149,
0.9341666698,22.85174561,
0.9358333349,23.15784264,
0.9375,23.01200676,
0.9391667247,23.28165054,
0.9408333302,23.10379219,
0.9424999952,23.04068184,
0.9441667199,23.12267303,
0.9458333254,23.13011932,
0.9475000501,23.06767082,
0.9491666555,22.95703125,
0.9508333206,23.00701141,
0.9525000453,23.00262642,
0.9541666508,23.2801075,
0.9558333755,23.00996971,
0.9575000405,23.26003075,
0.959166646,22.88236809,
0.9608333707,23.44503212,
0.9624999762,22.82502937,
0.9641667008,23.12220383,
0.9658333659,23.42346954,
0.9674999714,22.98836136,
0.9691666961,23.36771774,
0.9708333611,22.97529221,
0.9725000262,23.11143303,
0.9741666913,23.14260864,
0.9758332968,23.22480965,
0.9775000215,23.2382431,
0.9791666865,23.36785126,
0.9808333516,23.35719299,
0.9825000167,22.87738228,
0.9841666818,23.51568413,
0.9858333468,22.71609497,
0.9875000119,23.10367393,
0.989166677,23.03417778,
0.9908333421,23.24612808,
0.9925000072,23.16335487,
0.9941666722,23.16595459,
0.9958333373,23.61349106,
0.997500062,23.19875908,
0.9991666675,23.28736687,
1.000833273,23.13087654,
1.002500057,23.48067093,
1.004166722,22.9122448,
1.005833387,23.20184135,
1.007500052,22.92220879,
1.009166598,23.26671982,
1.010833383,22.89907074,
1.012500048,22.89066696,
1.014166713,22.93233871,
1.015833378,23.10211182,
1.017500043,22.99288559,
1.019166708,22.94280815,
1.020833373,23.35194588,
1.022500038,22.66477394,
1.024166703,23.31931114,
1.025833368,23.27124023,
1.027500033,23.23009491,
1.029166698,23.15419197,
1.030833364,23.06588364,
1.032500029,23.01537895,
1.034166694,23.29602051,
1.035833359,23.42728043,
1.037500024,23.13124847,
1.039166689,23.45044518,
1.040833354,22.89128494,
1.042500019,23.02641678,
1.044166684,23.35366249,
1.045833349,23.35329056,
1.047500014,24.74168205,
1.049166679,24.34785843,
1.050833344,24.01446915,
1.05250001,24.95772934,
1.054166675,25.75261688,
1.05583334,28.04507828,
1.057500005,27.41188431,
1.05916667,23.98812485,
1.060833335,28.86151314,
1.0625,26.16952324,
1.064166665,24.79124069,
1.06583333,25.49440765,
1.067499995,25.34407997,
1.06916666,28.30728149,
1.070833325,26.53089523,
1.07249999,28.2095108,
1.074166775,25.97759056,
1.07583344,24.588377,
1.077499986,28.44437027,
1.079166651,24.40607262,
1.080833316,31.52766037,
1.0825001,22.67650795,
1.084166765,22.49946022,
1.085833311,22.23248863,
1.087499976,22.67865181,
1.089166641,22.55262566,
1.090833426,22.61857605,
1.092500091,22.41830063,
1.094166636,22.41433907,
1.095833302,22.62706184,
1.097499967,22.33044052,
1.099166751,22.8889389,
1.100833416,22.50117302,
1.102500081,22.23475266,
1.104166627,22.25699425,
1.105833292,22.72741127,
1.107500076,22.22474861,
1.109166741,22.22542953,
1.110833406,22.36760139,
1.112499952,22.4377327,
1.114166617,22.17597198,
1.115833402,22.57833672,
1.117500067,22.34254646,
1.119166732,22.62895775,
1.120833278,22.97186089,
1.122499943,22.16136742,
1.124166727,21.98038483,
1.125833392,22.25159836,
1.127500057,22.34078598,
1.129166722,22.40155792,
1.130833268,22.38414955,
1.132500052,21.93626595,
1.134166718,22.30465317,
1.135833383,22.36952591,
1.137500048,22.26838875,
1.139166594,21.85532188,
1.140833378,21.65579796,
1.142500043,22.24125099,
1.144166708,21.90210724,
1.145833373,22.41701317,
1.147499919,22.03563881,
1.149166703,21.97397995,
1.150833368,21.95123482,
1.152500033,22.14955521,
1.154166698,21.85668755,
1.155833364,22.34241676,
1.157500029,21.92397881,
1.159166694,22.28049469,
1.160833359,21.61685753,
1.162500024,22.24215317,
1.164166689,21.59697151,
1.165833354,22.12195778,
1.167500019,21.94995308,
1.169166684,22.18647194,
1.170833349,21.62313271,
1.172500014,21.89528847,
1.174166799,22.05776405,
1.175833344,21.40941238,
1.17750001,22.07893944,
1.179166675,21.49450684,
1.18083334,21.94486237,
1.182500124,21.49206352,
1.18416667,21.56607819,
1.185833335,22.18154335,
1.1875,21.29412651,
1.189166665,21.51060486,
1.190833449,22.06674767,
1.192499995,22.09441185,
1.19416666,21.77885818,
1.195833325,21.27895355,
1.19749999,21.2877903,
1.199166775,21.98443413,
1.20083344,22.07057953,
1.202499986,21.71193314,
1.204166651,21.61195183,
1.205833316,21.47966957,
1.2075001,21.3497715,
1.209166765,21.85901451,
1.210833311,21.3492527,
1.212499976,21.45211601,
1.214166641,21.74723816,
1.215833426,21.52632332,
1.217500091,21.50174522,
1.219166636,21.77109528,
1.220833302,21.07712746,
1.222499967,21.37304497,
1.224166751,21.33132362,
1.225833416,21.32042885,
1.227500081,21.48981285,
1.229166627,21.36275291,
1.230833292,20.61466026,
1.232500076,21.41328812,
1.234166741,21.49079895,
1.235833406,21.70986366,
1.237499952,20.92938995,
1.239166617,21.33920288,
1.240833402,21.46639442,
1.242500067,21.23384285,
1.244166732,21.04891968,
1.245833278,21.03310204,
1.247499943,21.31242943,
1.249166727,21.49077606,
1.250833392,21.13370132,
1.252500057,21.31102753,
1.254166722,21.23247337,
1.255833268,20.97348404,
1.257500052,21.16922569,
1.259166718,21.20851135,
1.260833383,20.89714813,
1.262500048,21.12705612,
1.264166594,21.23766327,
1.265833378,21.35883713,
1.267500043,20.98595428,
1.269166708,20.81605911,
1.270833373,21.04525757,
1.272499919,21.03819847,
1.274166703,20.69265366,
1.275833368,21.05807877,
1.277500033,21.26602364,
1.279166698,20.75021362,
1.280833364,21.04717445,
1.282500029,21.40836906,
1.284166694,20.83937836,
1.285833359,21.19049072,
1.287500024,20.51804161,
1.289166689,20.88760376,
1.290833354,20.99007416,
1.292500019,21.0012989,
1.294166684,20.74725723,
1.295833349,20.72957611,
1.297500014,20.73426056,
1.299166799,20.71438408,
1.300833344,20.82691193,
1.30250001,20.61321068,
1.304166675,20.82623291,
1.30583334,20.80487251,
1.307500124,20.45915031,
1.30916667,20.51107025,
1.310833335,20.56348419,
1.3125,20.99869156,
1.314166665,20.8151207,
1.315833449,20.56468964,
1.317499995,20.6901474,
1.31916666,20.69632912,
1.320833325,20.95932198,
1.32249999,20.96416092,
1.324166775,20.66210365,
1.32583344,20.43142128,
1.327499986,20.66754532,
1.329166651,20.74215889,
1.330833316,20.51014328,
1.3325001,20.89527512,
1.334166765,20.6297245,
1.335833311,20.43803596,
1.337499976,20.91955376,
1.339166641,20.61099052,
1.340833426,20.46172905,
1.342500091,20.76068497,
1.344166636,20.57643127,
1.345833302,20.64980316,
1.347499967,20.29462242,
1.349166751,20.45438194,
1.350833416,20.30911064,
1.352500081,20.88089752,
1.354166627,20.5199337,
1.355833292,20.95747185,
1.357500076,20.35595894,
1.359166741,20.50038719,
1.360833406,20.09726524,
1.362499952,20.26391602,
1.364166617,20.5123024,
1.365833402,20.50478935,
1.367500067,20.49182701,
1.369166732,20.19802475,
1.370833278,20.62448883,
1.372499943,20.2797699,
1.374166727,20.07711029,
1.375833392,20.43568993,
1.377500057,20.29113579,
1.379166722,20.33843422,
1.380833268,19.89919281,
1.382500052,20.6720829,
1.384166718,20.20841026,
1.385833383,20.44964027,
1.387500048,21.01109505,
1.389166594,20.15232277,
1.390833378,20.70690346,
1.392500043,20.80903435,
1.394166708,20.77332115,
1.395833373,19.78726768,
1.397499919,20.43370819,
1.399166703,20.24890137,
1.400833368,20.25060654,
1.402500033,20.27852058,
1.404166698,19.90390396,
1.405833364,19.81349182,
1.407500029,20.46043396,
1.409166694,20.8552227,
1.410833359,20.33611107,
1.412500024,20.74683762,
1.414166689,20.26129913,
1.415833354,20.29130363,
1.417500019,20.13985443,
1.419166684,19.84547424,
1.420833349,19.53389359,
1.422500014,20.01659584,
1.424166799,20.51067162,
1.425833344,20.21640396,
1.42750001,20.39264107,
1.429166675,20.53002548,
1.43083334,20.21421051,
1.432500124,20.20840073,
1.43416667,19.91284752,
1.435833335,20.28524399,
1.4375,20.31287575,
1.439166665,19.91459846,
1.440833449,20.27343941,
1.442499995,20.37399483,
1.44416666,20.20359039,
1.445833325,19.99167442,
1.44749999,20.10845375,
1.449166775,20.11985588,
1.45083344,20.11889267,
1.452499986,20.14323807,
1.454166651,20.33824539,
1.455833316,20.00794983,
1.4575001,20.19789886,
1.459166765,20.37982368,
1.460833311,20.10394669,
1.462499976,19.97709465,
1.464166641,20.0301609,
1.465833426,20.15261841,
1.467500091,20.21896362,
1.469166636,19.97311401,
1.470833302,20.23549652,
1.472499967,20.67818069,
1.474166751,20.33627892,
1.475833416,20.12915993,
1.477500081,19.77268219,
1.479166627,20.18340874,
1.480833292,19.87285805,
1.482500076,19.93151665,
1.484166741,19.9442215,
1.485833406,19.71582794,
1.487499952,19.35908508,
1.489166617,19.89357567,
1.490833402,19.93341446,
1.492500067,19.98573685,
1.494166732,19.81141281,
1.495833278,19.96934319,
1.497499943,20.04447365,
1.499166727,20.02959824,
1.500833392,19.77678299,
1.502500057,20.09785843,
1.504166722,19.74248314,
1.505833268,19.61362267,
1.507500052,20.07460785,
1.509166718,20.48274231,
1.510833383,19.88669014,
1.512500048,19.57641029,
1.514166594,19.92029572,
1.515833378,19.6078434,
1.517500043,20.00085449,
1.519166708,20.02017784,
1.520833373,19.87071037,
1.522499919,19.96214104,
1.524166703,19.43997002,
1.525833368,19.23614883,
1.527500033,19.87838554,
1.529166698,19.35570526,
1.530833364,19.85240936,
1.532500029,19.67608643,
1.534166694,19.84052277,
1.535833359,20.02867317,
1.537500024,19.95245934,
1.539166689,19.74935722,
1.540833354,19.72832108,
1.542500019,19.88698959,
1.544166684,19.57315636,
1.545833349,19.67199516,
1.547500014,19.89954185,
1.549166799,19.66328812,
1.550833344,19.90681076,
1.55250001,19.85802841,
1.554166675,19.63394356,
1.55583334,19.37310791,
1.557500124,20.03727341,
1.55916667,19.36392593,
1.560833335,19.59438896,
1.5625,19.76902199,
1.564166665,19.79124069,
1.565833449,19.65753746,
1.567499995,19.90028381,
1.56916666,19.70990944,
1.570833325,19.71570778,
1.57249999,19.02857208,
1.574166775,19.79711533,
1.57583344,20.23439217,
1.577499986,19.83046913,
1.579166651,19.23906898,
1.580833316,19.39400482,
1.5825001,19.79876328,
1.584166765,19.51987457,
1.585833311,19.48826027,
1.587499976,19.42842865,
1.589166641,20.04789543,
1.590833426,19.78894043,
1.592500091,19.88179588,
1.594166636,19.3004055,
1.595833302,19.44296074,
1.597499967,19.51483917,
1.599166751,19.37933159,
1.600833416,19.47175598,
1.602500081,19.45613861,
1.604166627,19.4440136,
1.605833292,19.42589378,
1.607500076,19.98537254,
1.609166741,19.72687721,
1.610833406,19.49028206,
1.612499952,19.74308395,
1.614166617,19.54085159,
1.615833402,19.61611366,
1.617500067,19.41461372,
1.619166732,19.27836609,
1.620833278,19.44753265,
1.622499943,19.87833595,
1.624166727,19.66550827,
1.625833392,19.89001846,
1.627500057,19.80997467,
1.629166722,19.86167526,
1.630833268,19.46610069,
1.632500052,19.44293404,
1.634166718,19.80162621,
1.635833383,19.59428024,
1.637500048,19.86224747,
1.639166594,19.51015854,
1.640833378,19.22058487,
1.642500043,19.27548409,
1.644166708,19.4260807,
1.645833373,19.51987839,
1.647499919,19.46554756,
1.649166703,19.61815643,
1.650833368,19.35947037,
1.652500033,19.4733429,
1.654166698,19.22097969,
1.655833364,19.80002213,
1.657500029,19.72875214,
1.659166694,19.39858246,
1.660833359,19.49629593,
1.662500024,19.44031715,
1.664166689,19.14522934,
1.665833354,19.38394928,
1.667500019,19.28406525,
1.669166684,19.78518677,
1.670833349,19.64617729,
1.672500014,19.69937134,
1.674166799,19.23416519,
1.675833344,19.33093452,
1.67750001,19.49887085,
1.679166675,19.26204681,
1.68083334,19.22062492,
1.682500124,19.11223984,
1.68416667,19.01961708,
1.685833335,18.89162827,
1.6875,19.52062988,
1.689166665,19.29656219,
1.690833449,19.37121773,
1.692499995,19.84283638,
1.69416666,19.4927578,
1.695833325,19.70973015,
1.69749999,18.82285118,
1.699166775,19.657547,
1.70083344,19.36602783,
1.702499986,18.91105652,
1.704166651,19.18751907,
1.705833316,19.39647293,
1.7075001,19.63081551,
1.709166765,19.48895264,
1.710833311,19.44676208,
1.712499976,19.51862526,
1.714166641,19.05794334,
1.715833426,19.29136086,
1.717500091,19.28238106,
1.719166636,19.37146759,
1.720833302,19.12408447,
1.722499967,19.77934837,
1.724166751,19.36718178,
1.725833416,19.33792877,
1.727500081,19.11922646,
1.729166627,19.25101662,
1.730833292,18.87269211,
1.732500076,19.00670433,
1.734166741,19.20864296,
1.735833406,19.22074127,
1.737499952,19.25725555,
1.739166617,19.39977074,
1.740833402,19.43197823,
1.742500067,19.37161255,
1.744166732,19.11863327,
1.745833278,18.94643211,
1.747499943,18.88061142,
1.749166727,19.40945816,
1.750833392,19.01840782,
1.752500057,19.18517303,
1.754166722,19.57370186,
1.755833268,18.7990551,
1.757500052,19.41379166,
1.759166718,19.36923409,
1.760833383,19.05591774,
1.762500048,19.32248116,
1.764166594,19.36065102,
1.765833378,19.42321396,
1.767500043,19.3930645,
1.769166708,19.246418,
1.770833373,19.23468208,
1.772499919,19.51581955,
1.774166703,19.38163948,
1.775833368,19.14873314,
1.777500033,19.13169861,
1.779166698,19.14239693,
1.780833364,19.00019646,
1.782500029,18.96197319,
1.784166694,19.3147316,
1.785833359,19.250597,
1.787500024,19.32011223,
1.789166689,19.55498505,
1.790833354,19.28187943,
1.792500019,19.13214493,
1.794166684,19.36996651,
1.795833349,19.17855644,
1.797500014,19.1635437,
1.799166799,19.19346428,
1.800833344,19.09641075,
1.80250001,18.66158867,
1.804166675,19.16277504,
1.80583334,19.15583229,
1.807500124,19.00240326,
1.80916667,19.37013817,
1.810833335,19.18160248,
1.8125,19.00404739,
1.814166665,19.16063309,
1.815833449,18.77942848,
1.817499995,18.83479118,
1.81916666,19.22519302,
1.820833325,18.92456245,
1.82249999,19.40106583,
1.824166775,19.11179543,
1.82583344,18.9376049,
1.827499986,19.12910271,
1.829166651,18.62628174,
1.830833316,19.31315041,
1.8325001,18.79581833,
1.834166765,19.0697422,
1.835833311,19.06127548,
1.837499976,18.98439217,
1.839166641,19.23378754,
1.840833426,19.11650467,
1.842500091,18.84833336,
1.844166636,19.15995598,
1.845833302,18.88076973,
1.847499967,18.87283325,
1.849166751,19.41329384,
1.850833416,19.12906265,
1.852500081,19.17264366,
1.854166627,18.77843094,
1.855833292,19.4267025,
1.857500076,19.16546059,
1.859166741,18.96357918,
1.860833406,19.17506599,
1.862499952,19.05023193,
1.864166617,18.9918232,
1.865833402,19.11368752,
1.867500067,19.22105026,
1.869166732,19.07306099,
1.870833278,18.87688828,
1.872499943,19.53376579,
1.874166727,19.24056244,
1.875833392,19.02270508,
1.877500057,19.32089996,
1.879166722,18.65203476,
1.880833268,19.10889053,
1.882500052,19.07772827,
1.884166718,18.82750511,
1.885833383,18.70239258,
1.887500048,18.73110199,
1.889166594,18.77625465,
1.890833378,18.96730232,
1.892500043,19.14422417,
1.894166708,19.25119591,
1.895833373,18.89986229,
1.897499919,19.115839,
1.899166703,19.39554214,
1.900833368,18.93777466,
1.902500033,18.71831131,
1.904166698,18.96827507,
1.905833364,18.730793,
1.907500029,19.13815117,
1.909166694,19.17497063,
1.910833359,19.43530655,
1.912500024,19.20425224,
1.914166689,18.85699463,
1.915833354,18.76154518,
1.917500019,18.62236404,
1.919166684,18.62997627,
1.920833349,18.92309761,
1.922500014,18.78349876,
1.924166799,18.7778492,
1.925833344,18.99898148,
1.92750001,18.45895576,
1.929166675,18.57309914,
1.93083334,19.1062603,
1.932500124,19.09178543,
1.93416667,18.85870361,
1.935833335,18.94433403,
1.9375,18.98722839,
1.939166665,19.09598923,
1.940833449,18.8663559,
1.942499995,18.96743011,
1.94416666,18.57568359,
1.945833325,19.01104546,
1.94749999,18.83685684,
1.949166775,18.59411049,
1.95083344,18.71638489,
1.952499986,18.86961746,
1.954166651,18.7297821,
1.955833316,18.72844696,
1.9575001,18.77013016,
1.959166765,18.62808228,
1.960833311,19.14167786,
1.962499976,18.8657856,
1.964166641,18.9366169,
1.965833426,18.51595116,
1.967500091,18.83898544,
1.969166636,19.00627708,
1.970833302,18.76675606,
1.972499967,18.61017036,
1.974166751,18.9796505,
1.975833416,18.84363556,
1.977500081,18.66377449,
1.979166627,18.85759735,
1.980833292,18.78819847,
1.982500076,18.45569038,
1.984166741,18.79764175,
1.985833406,18.75562096,
1.987499952,19.0229454,
1.989166617,18.9887352,
1.990833402,18.9910202,
1.992500067,19.00635338,
1.994166732,18.82579803,
1.995833278,18.48758316,
1.997499943,18.59142303,
1.999166727,18.93000603,
2.000833273,19.05194664,
2.002500057,18.7526207,
2.004166603,18.83931351,
2.005833387,18.53873253,
2.007500172,18.11845398,
2.009166718,18.88559914,
2.010833263,18.83593369,
2.012500048,18.81861877,
2.014166594,18.55435944,
2.015833378,19.07422447,
2.017500162,18.53097153,
2.019166708,18.38650703,
2.020833254,18.73522377,
2.022500038,18.75506401,
2.024166822,18.54216194,
2.025833368,19.01944733,
2.027499914,18.50873756,
2.029166698,18.61491585,
2.030833244,18.91027641,
2.032500029,19.20221329,
2.034166813,18.96143913,
2.035833359,19.05174828,
2.037499905,18.66853333,
2.039166689,18.48011589,
2.040833473,18.59355927,
2.042500019,18.88005638,
2.044166803,18.94162941,
2.045833349,19.15362549,
2.047499895,18.95315361,
2.049166679,18.82221413,
2.050833464,18.7641716,
2.05250001,18.78271866,
2.054166555,18.56386948,
2.05583334,18.49939537,
2.057500124,18.96899414,
2.05916667,18.84801674,
2.060833454,18.58137703,
2.0625,19.15337753,
2.064166546,18.88155746,
2.06583333,18.95142555,
2.067500114,18.92490578,
2.06916666,18.88692474,
2.070833445,18.91384506,
2.07249999,18.59393883,
2.074166775,19.19694328,
2.075833321,18.76441383,
2.077500105,18.55184937,
2.079166651,18.99277496,
2.080833197,18.50404549,
2.082499981,18.66801453,
2.084166765,18.79598618,
2.085833311,18.77775002,
2.087500095,18.72743607,
2.089166641,18.55468178,
2.090833426,18.4167614,
2.092499971,18.38072395,
2.094166756,18.74518776,
2.095833302,18.72227097,
2.097500086,18.87353897,
2.099166632,18.6312294,
2.100833416,18.50876617,
2.102499962,18.48566246,
2.104166746,18.93846321,
2.105833292,18.62974739,
2.107500076,18.67669868,
2.109166622,18.97250748,
2.110833406,18.40770531,
2.112499952,18.43910217,
2.114166737,18.88358879,
2.115833521,18.55586815,
2.117500067,18.4432354,
2.119166613,18.57470322,
2.120833397,18.59923553,
2.122499943,18.13716507,
2.124166727,18.83017349,
2.125833273,18.62159157,
2.127500057,18.58751678,
2.129166603,18.47289848,
2.130833387,18.78136444,
2.132500172,18.41013145,
2.134166718,18.82151794,
2.135833502,18.3822422,
2.137500048,18.42294884,
2.139166832,18.95866776,
2.140833378,18.54993057,
2.142500162,18.66808891,
2.144166708,18.58217049,
2.145833254,18.42082596,
2.147500038,18.83370018,
2.149166584,18.68903732,
2.150833368,18.44073677,
2.152500153,18.86177826,
2.154166698,18.66866493,
2.155833483,18.49918365,
2.157500029,18.71419334,
2.159166813,18.79660416,
2.160833597,18.59280014,
2.162499905,18.7333622,
2.164166689,18.53904533,
2.165833235,18.76257133,
2.167500019,18.75583839,
2.169166803,18.69016075,
2.170833349,18.81788635,
2.172500134,18.81488609,
2.174166679,18.39169502,
2.175833464,18.91877365,
2.177500248,18.65373421,
2.179166555,18.46548462,
2.18083334,18.7323494,
2.182499886,18.69176102,
2.18416667,18.41449356,
2.185833454,18.8171711,
2.1875,18.0390377,
2.189166784,18.63019753,
2.19083333,18.76243019,
2.192500114,18.81615067,
2.194166899,19.11207008,
2.195833445,18.73797226,
2.19749999,18.76943207,
2.199166536,18.45408058,
2.200833321,18.44797325,
2.202500105,18.78078842,
2.204166651,18.6859951,
2.205833435,18.75741005,
2.207499981,18.32970619,
2.209166765,19.27890968,
2.210833549,18.3585434,
2.212500095,18.58782196,
2.21416688,18.77072144,
2.215833187,18.54349136,
2.217499971,18.55328178,
2.219166756,18.40160561,
2.220833302,18.53316879,
2.222500086,18.66701508,
2.224166632,18.41805077,
2.225833416,18.67401505,
2.2275002,18.4919796,
2.229166746,18.75003815,
2.23083353,18.35758591,
2.232499838,18.26800728,
2.234166622,18.55512428,
2.235833406,18.46905327,
2.237499952,18.50543404,
2.239166737,18.75686836,
2.240833282,18.56555557,
2.242500067,18.39845276,
2.244166851,18.50307465,
2.245833397,18.35313988,
2.247500181,18.70742226,
2.249166727,18.81596184,
2.250833273,18.29439163,
2.252500057,18.67036057,
2.254166603,18.84268188,
2.255833387,18.53263283,
2.257499933,18.77734756,
2.259166718,18.47237778,
2.260833502,18.500103,
2.262500048,18.68011475,
2.264166832,18.12712669,
2.265833378,18.9141407,
2.267500162,18.91558838,
2.269166708,18.60675621,
2.270833254,18.44339371,
2.272500038,18.26483917,
2.274166584,18.58909035,
2.275833368,18.47525406,
2.277500153,18.42735481,
2.279166698,18.28855324,
2.280833483,18.69640541,
2.282500029,18.37982178,
2.284166813,18.86303711,
2.285833597,18.51540375,
2.287499905,18.22211266,
2.289166689,18.54303169,
2.290833235,18.14899635,
2.292500019,18.24323845,
2.294166803,18.15576935,
2.295833349,18.51422501,
2.297500134,18.78837013,
2.299166679,18.66423416,
2.300833464,18.79131126,
2.302500248,18.47335434,
2.304166555,18.7510128,
2.30583334,18.42411804,
2.307499886,18.28789711,
2.30916667,18.73067093,
2.310833454,18.00009346,
2.3125,18.62449646,
2.314166784,18.57281303,
2.31583333,18.06826019,
2.317500114,17.9570961,
2.319166899,18.43882179,
2.320833445,18.61376953,
2.32249999,18.60426521,
2.324166536,18.25663567,
2.325833321,18.50852203,
2.327500105,18.16159248,
2.329166651,18.85098267,
2.330833435,18.56526566,
2.332499981,18.39402962,
2.334166765,18.19622231,
2.335833549,18.63224792,
2.337500095,18.48376656,
2.33916688,18.52760124,
2.340833187,18.58216095,
2.342499971,18.42658806,
2.344166756,18.64243698,
2.345833302,18.50755882,
2.347500086,18.47354889,
2.349166632,18.43527603,
2.350833416,17.97636414,
2.3525002,18.18757248,
2.354166746,18.29413605,
2.35583353,18.36842728,
2.357499838,18.23901176,
2.359166622,18.46482086,
2.360833406,18.37808418,
2.362499952,18.77483368,
2.364166737,18.15899277,
2.365833282,18.13545609,
2.367500067,18.65649414,
2.369166851,18.4372139,
2.370833397,18.13980675,
2.372500181,18.17373848,
2.374166727,18.72240257,
2.375833273,18.65286827,
2.377500057,18.39645576,
2.379166603,18.34060669,
2.380833387,18.73081779,
2.382499933,18.23653984,
2.384166718,18.36266136,
2.385833502,18.79851913,
2.387500048,18.10517693,
2.389166832,17.84893036,
2.390833378,18.51202202,
2.392500162,18.32381248,
2.394166708,18.27899551,
2.395833254,18.63312912,
2.397500038,18.30311775,
2.399166584,18.52392769,
2.400833368,18.42102242,
2.402500153,18.55845833,
2.404166698,18.13265038,
2.405833483,18.59106636,
2.407500029,18.2794342,
2.409166813,18.36957169,
2.410833597,18.34040833,
2.412499905,18.58670044,
2.414166689,18.30679893,
2.415833235,18.37718201,
2.417500019,17.86222649,
2.419166803,18.63664246,
2.420833349,18.24625969,
2.422500134,18.77066612,
2.424166679,18.50526237,
2.425833464,18.57735825,
2.427500248,18.38510895,
2.429166555,18.6521492,
2.43083334,18.60196495,
2.432499886,18.52623558,
2.43416667,18.42190552,
2.435833454,18.19622421,
2.4375,18.53103828,
2.439166784,18.72494888,
2.44083333,18.08394432,
2.442500114,18.51763916,
2.444166899,18.53252602,
2.445833445,18.11453438,
2.44749999,18.16971779,
2.449166536,18.45155907,
2.450833321,18.62718201,
2.452500105,18.51459694,
2.454166651,18.41737747,
2.455833435,18.06092644,
2.457499981,18.33411217,
2.459166765,18.3735218,
2.460833549,18.15762329,
2.462500095,18.55974007,
2.46416688,18.29742432,
2.465833187,18.37268829,
2.467499971,18.16275406,
2.469166756,18.38516998,
2.470833302,18.53926849,
2.472500086,18.21102715,
2.474166632,18.29055405,
2.475833416,18.12995911,
2.4775002,18.57876587,
2.479166746,18.26932907,
2.48083353,18.69363022,
2.482499838,18.41961098,
2.484166622,18.35769653,
2.485833406,18.20445633,
2.487499952,18.51599884,
2.489166737,18.54625893,
2.490833282,17.85365868,
2.492500067,18.54436684,
2.494166851,18.65387154,
2.495833397,17.69453621,
2.497500181,18.30103302,
2.499166727,18.70059586,
2.500833273,18.29366684,
2.502500057,18.05406761,
2.504166603,18.54383469,
2.505833387,18.16391945,
2.507499933,18.45590401,
2.509166718,18.55989456,
2.510833502,18.41335487,
2.512500048,18.32818794,
2.514166832,18.41535568,
2.515833378,18.37079048,
2.517500162,18.09753609,
2.519166708,18.43202972,
2.520833254,18.2796402,
2.522500038,17.85247612,
2.524166584,18.18693924,
2.525833368,18.54942703,
2.527500153,18.47684479,
2.529166698,18.34797287,
2.530833483,18.12394714,
2.532500029,18.29943848,
2.534166813,18.46683311,
2.535833597,18.44730759,
2.537499905,18.51774025,
2.539166689,18.45997429,
2.540833235,18.28312683,
2.542500019,18.24832726,
2.544166803,18.33635712,
2.545833349,18.40557098,
2.547500134,17.9344883,
2.549166679,18.75863266,
2.550833464,18.00630951,
2.552500248,18.56728935,
2.554166555,18.54560471,
2.55583334,18.13275528,
2.557499886,18.38835907,
2.55916667,18.35033798,
2.560833454,18.31246567,
2.5625,18.7122612,
2.564166784,18.4725647,
2.56583333,17.91178131,
2.567500114,17.99178123,
2.569166899,17.79000664,
2.570833445,18.48048019,
2.57249999,17.92587471,
2.574166536,18.24698448,
2.575833321,17.96056175,
2.577500105,18.10470963,
2.579166651,18.55375099,
2.580833435,18.44467735,
2.582499981,18.06959724,
2.584166765,18.28604698,
2.585833549,18.16590118,
2.587500095,18.11192131,
2.58916688,18.29319572,
2.590833187,18.34246826,
2.592499971,18.17156792,
2.594166756,18.19021034,
2.595833302,18.17417908,
2.597500086,18.36424255,
2.599166632,18.30334473,
2.600833416,18.37014008,
2.6025002,18.11529541,
2.604166746,17.86247063,
2.60583353,18.50227547,
2.607499838,18.12586403,
2.609166622,18.37848091,
2.610833406,18.25666809,
2.612499952,18.20431137,
2.614166737,18.26251221,
2.615833282,18.61016273,
2.617500067,18.14928055,
2.619166851,18.21415138,
2.620833397,18.398592,
2.622500181,18.49500275,
2.624166727,18.32040977,
2.625833273,18.19524956,
2.627500057,18.20998383,
2.629166603,18.25014687,
2.630833387,18.74066544,
2.632499933,18.22624969,
2.634166718,18.09810066,
2.635833502,18.48160172,
2.637500048,18.14817429,
2.639166832,18.20978928,
2.640833378,18.0603714,
2.642500162,18.05286407,
2.644166708,18.69393921,
2.645833254,18.38528824,
2.647500038,18.49132919,
2.649166584,18.08296013,
2.650833368,18.20359421,
2.652500153,18.3438282,
2.654166698,18.13790512,
2.655833483,17.88621712,
2.657500029,18.38451576,
2.659166813,18.11018944,
2.660833597,18.46231842,
2.662499905,18.27069855,
2.664166689,18.49645996,
2.665833235,18.26080704,
2.667500019,18.24402809,
2.669166803,18.24715614,
2.670833349,17.95588303,
2.672500134,18.12845612,
2.674166679,18.34544182,
2.675833464,18.4442997,
2.677500248,18.2013855,
2.679166555,17.70139885,
2.68083334,17.95993805,
2.682499886,18.31444168,
2.68416667,18.10184288,
2.685833454,18.04108238,
2.6875,18.02295113,
2.689166784,17.97999001,
2.69083333,17.63773346,
2.692500114,18.40490913,
2.694166899,18.3892746,
2.695833445,17.96279526,
2.69749999,18.12467575,
2.699166536,18.28321457,
2.700833321,18.48155403,
2.702500105,18.0370388,
2.704166651,18.60326958,
2.705833435,18.37068367,
2.707499981,18.199646,
2.709166765,18.58014488,
2.710833549,18.37162209,
2.712500095,17.98997688,
2.71416688,18.22079849,
2.715833187,18.89089775,
2.717499971,18.04614449,
2.719166756,18.35163307,
2.720833302,17.81171989,
2.722500086,18.19547653,
2.724166632,18.52811432,
2.725833416,17.971632,
2.7275002,17.94963646,
2.729166746,17.97711182,
2.73083353,17.9800396,
2.732499838,18.14944458,
2.734166622,18.09640884,
2.735833406,18.39295578,
2.737499952,18.32008171,
2.739166737,18.17777634,
2.740833282,18.33427429,
2.742500067,18.22055817,
2.744166851,18.43699646,
2.745833397,18.42985153,
2.747500181,18.46767998,
2.749166727,18.09589386,
2.750833273,17.99077034,
2.752500057,18.34537888,
2.754166603,18.19647408,
2.755833387,17.89430428,
2.757499933,17.86382866,
2.759166718,18.06560898,
2.760833502,17.9603672,
2.762500048,18.00808716,
2.764166832,18.5037632,
2.765833378,18.55242157,
2.767500162,18.40400124,
2.769166708,17.73637772,
2.770833254,17.90010071,
2.772500038,17.96751595,
2.774166584,17.89947128,
2.775833368,18.25492096,
2.777500153,18.3798008,
2.779166698,17.82638741,
2.780833483,18.70070076,
2.782500029,18.29699516,
2.784166813,17.89299393,
2.785833597,18.21284485,
2.787499905,17.86005783,
2.789166689,18.13408852,
2.790833235,18.43548203,
2.792500019,17.97505569,
2.794166803,18.27461815,
2.795833349,18.11502266,
2.797500134,18.20396423,
2.799166679,18.22671509,
2.800833464,18.24688721,
2.802500248,18.29279137,
2.804166555,18.28883743,
2.80583334,18.03881645,
2.807499886,17.89225769,
2.80916667,18.1245842,
2.810833454,18.4417305,
2.8125,18.06535149,
2.814166784,18.19821548,
2.81583333,18.3228817,
2.817500114,18.32080078,
2.819166899,18.20443916,
2.820833445,18.16716576,
2.82249999,18.17956352,
2.824166536,18.23794746,
2.825833321,18.15757561,
2.827500105,17.83193779,
2.829166651,18.46668243,
2.830833435,18.00419426,
2.832499981,17.90621376,
2.834166765,17.94705391,
2.835833549,18.08193588,
2.837500095,18.18504715,
2.83916688,18.37521172,
2.840833187,17.78846931,
2.842499971,17.85032654,
2.844166756,18.22423172,
2.845833302,17.80899048,
2.847500086,18.19141579,
2.849166632,18.09378052,
2.850833416,18.21739578,
2.8525002,18.41215324,
2.854166746,18.2787838,
2.85583353,17.81122017,
2.857499838,17.7881031,
2.859166622,18.32583618,
2.860833406,17.95080376,
2.862499952,18.09618759,
2.864166737,17.88983154,
2.865833282,18.14368057,
2.867500067,18.3646183,
2.869166851,17.9677639,
2.870833397,18.30548668,
2.872500181,17.87207031,
2.874166727,18.1930294,
2.875833273,17.85979462,
2.877500057,18.12237167,
2.879166603,18.25301933,
2.880833387,17.85607719,
2.882499933,18.49025726,
2.884166718,17.95166206,
2.885833502,18.12570572,
2.887500048,18.53286552,
2.889166832,18.29275703,
2.890833378,18.21711731,
2.892500162,18.31594467,
2.894166708,18.15392494,
2.895833254,17.98044205,
2.897500038,18.10520363,
2.899166584,17.89646339,
2.900833368,17.75262451,
2.902500153,18.63547707,
2.904166698,17.73630714,
2.905833483,18.38860512,
2.907500029,18.45684052,
2.909166813,18.13923264,
2.910833597,17.95521545,
2.912499905,18.11219978,
2.914166689,18.51862907,
2.915833235,18.02639771,
2.917500019,18.38900185,
2.919166803,18.2942543,
2.920833349,18.14621925,
2.922500134,17.8954525,
2.924166679,18.13513374,
2.925833464,18.35309601,
2.927500248,18.0557518,
2.929166555,18.03974152,
2.93083334,18.44035149,
2.932499886,17.8770752,
2.93416667,18.30156708,
2.935833454,18.2421608,
2.9375,17.92928696,
2.939166784,17.94545555,
2.94083333,18.13791084,
2.942500114,17.97541428,
2.944166899,18.03291321,
2.945833445,18.13978386,
2.94749999,18.1060791,
2.949166536,18.13236618,
2.950833321,17.89409828,
2.952500105,17.75603867,
2.954166651,17.78368759,
2.955833435,18.23249435,
2.957499981,18.17254829,
2.959166765,17.66448593,
2.960833549,17.74661636,
2.962500095,17.93055153,
2.96416688,18.00570488,
2.965833187,17.99386024,
2.967499971,18.23677444,
2.969166756,17.71421242,
2.970833302,17.88814926,
2.972500086,17.54550934,
2.974166632,18.1041832,
2.975833416,18.20107651,
2.9775002,18.26876259,
2.979166746,18.31081581,
2.98083353,18.00430679,
2.982499838,17.89224052,
2.984166622,17.95164299,
2.985833406,17.92572784,
2.987499952,18.0033493,
2.989166737,17.94106674,
2.990833282,18.16704178,
2.992500067,18.00256538,
2.994166851,18.00384712,
2.995833397,17.92431641,
2.997500181,18.26200676,
2.999166727,18.08765602,
3.000833273,17.590662,
3.002500057,17.94373703,
3.004166603,18.30369568,
3.005833387,17.97238541,
3.007499933,18.03851128,
3.009166718,17.86093712,
3.010833502,17.89738274,
3.012500048,18.04663277,
3.014166832,17.87998772,
3.015833378,18.1574192,
3.017500162,17.7796669,
3.019166708,18.05323982,
3.020833254,18.07729149,
3.022500038,18.14593315,
3.024166584,18.01193047,
3.025833368,17.96124077,
3.027500153,17.93968201,
3.029166698,18.1893425,
3.030833483,18.24476051,
3.032500029,18.02806091,
3.034166813,17.65931702,
3.035833597,18.02649689,
3.037499905,17.65553474,
3.039166689,17.84093666,
3.040833235,17.70653152,
3.042500019,18.14971733,
3.044166803,18.2079258,
3.045833349,18.59262276,
3.047500134,17.98371124,
3.049166679,17.9767971,
3.050833464,18.20567322,
3.052500248,17.91457939,
3.054166555,17.72236633,
3.05583334,18.20730019,
3.057499886,17.90210915,
3.05916667,18.00194359,
3.060833454,18.12147141,
3.0625,17.82266617,
3.064166784,17.68826294,
3.06583333,18.08628464,
3.067500114,17.9733448,
3.069166899,17.88916016,
3.070833445,18.23361206,
3.07249999,17.75158501,
3.074166536,18.09247589,
3.075833321,17.80630112,
3.077500105,18.06711388,
3.079166651,17.8641758,
3.080833435,18.05720139,
3.082499981,17.83138847,
3.084166765,18.34274483,
3.085833549,18.020401,
3.087500095,18.06097794,
3.08916688,18.25263023,
3.090833187,17.84644508,
3.092499971,17.81395149,
3.094166756,17.9445343,
3.095833302,18.11340141,
3.097500086,18.2161026,
3.099166632,17.91264534,
3.100833416,18.24219131,
3.1025002,17.86564636,
3.104166746,18.26893806,
3.10583353,17.96501732,
3.107499838,18.3047905,
3.109166622,18.03079605,
3.110833406,17.83155441,
3.112499952,17.6318264,
3.114166737,17.83355713,
3.115833282,17.73808479,
3.117500067,18.45038223,
3.119166851,17.84388351,
3.120833397,18.11303139,
3.122500181,17.82578659,
3.124166727,17.89923477,
3.125833273,18.10921669,
3.127500057,17.9984169,
3.129166603,17.90931702,
3.130833387,18.12529564,
3.132499933,17.99531937,
3.134166718,17.87416077,
3.135833502,18.37118149,
3.137500048,17.84387398,
3.139166832,17.5814991,
3.140833378,17.89368057,
3.142500162,18.02916145,
3.144166708,17.99233818,
3.145833254,17.77473259,
3.147500038,17.84269905,
3.149166584,17.96718788,
3.150833368,17.99346733,
3.152500153,18.03649712,
3.154166698,18.01672173,
3.155833483,17.68302536,
3.157500029,17.93530846,
3.159166813,18.01054001,
3.160833597,18.08484268,
3.162499905,17.83210564,
3.164166689,17.79268646,
3.165833235,18.00205231,
3.167500019,18.24988174,
3.169166803,18.20237541,
3.170833349,17.95363235,
3.172500134,17.76548004,
3.174166679,17.93102455,
3.175833464,17.76139832,
3.177500248,18.2988987,
3.179166555,18.21746635,
3.18083334,18.02438736,
3.182499886,17.91656303,
3.18416667,17.89799309,
3.185833454,18.18850708,
3.1875,18.1506443,
3.189166784,18.15616798,
3.19083333,17.9624176,
3.192500114,17.85414314,
3.194166899,18.12361717,
3.195833445,17.69692993,
3.19749999,17.63944054,
3.199166536,18.08719444,
3.200833321,17.75228882,
3.202500105,18.20737457,
3.204166651,17.93711281,
3.205833435,18.14669609,
3.207499981,17.83368874,
3.209166765,17.88696671,
3.210833549,18.25106049,
3.212500095,17.57692528,
3.21416688,17.76034546,
3.215833187,17.87439919,
3.217499971,18.02034569,
3.219166756,17.97559547,
3.220833302,18.05812836,
3.222500086,17.73674202,
3.224166632,18.12795067,
3.225833416,17.98054314,
3.2275002,18.30964851,
3.229166746,17.97997475,
3.23083353,18.2155056,
3.232499838,18.01037025,
3.234166622,17.83016014,
3.235833406,18.04633904,
3.237499952,17.80366325,
3.239166737,18.07814407,
3.240833282,17.78141975,
3.242500067,17.91241074,
3.244166851,17.91204071,
3.245833397,18.04331207,
3.247500181,17.86722374,
3.249166727,18.00805855,
3.250833273,17.66555405,
3.252500057,17.91926193,
3.254166603,18.3778019,
3.255833387,17.78030396,
3.257499933,17.85547638,
3.259166718,17.80872154,
3.260833502,18.01585579,
3.262500048,18.18657112,
3.264166832,17.91405106,
3.265833378,17.95879173,
3.267500162,18.00901222,
3.269166708,18.03013039,
3.270833254,18.35329247,
3.272500038,18.12183952,
3.274166584,17.4932518,
3.275833368,18.12909698,
3.277500153,18.26805305,
3.279166698,17.78592491,
3.280833483,17.92967987,
3.282500029,17.80871773,
3.284166813,17.96474648,
3.285833597,18.02769279,
3.287499905,17.95945549,
3.289166689,17.93511963,
3.290833235,17.68496704,
3.292500019,17.89934349,
3.294166803,17.85160065,
3.295833349,17.69299126,
3.297500134,18.15050697,
3.299166679,17.89437103,
3.300833464,17.71043015,
3.302500248,17.89917374,
3.304166555,17.78972816,
3.30583334,17.59488678,
3.307499886,17.96742249,
3.30916667,18.20248222,
3.310833454,17.5958519,
3.3125,17.73106575,
3.314166784,18.46337509,
3.31583333,17.67451859,
3.317500114,18.33999062,
3.319166899,18.28863525,
3.320833445,17.79135323,
3.32249999,17.57151985,
3.324166536,17.75600243,
3.325833321,18.02593231,
3.327500105,17.98558998,
3.329166651,18.04374886,
3.330833435,17.61473465,
3.332499981,17.81925392,
3.334166765,17.80822754,
3.335833549,17.61029816,
3.337500095,18.06044769,
3.33916688,17.47106552,
3.340833187,18.28871155,
3.342499971,17.91101837,
3.344166756,17.8492527,
3.345833302,17.6658802,
3.347500086,17.63868332,
3.349166632,17.79820442,
3.350833416,18.24952126,
3.3525002,17.83003807,
3.354166746,18.08319473,
3.35583353,17.67764091,
3.357499838,17.46017647,
3.359166622,18.29958725,
3.360833406,18.16634369,
3.362499952,17.90526772,
3.364166737,17.80949211,
3.365833282,17.83930397,
3.367500067,17.95127106,
3.369166851,17.99808502,
3.370833397,17.80506516,
3.372500181,18.20219803,
3.374166727,17.93370819,
3.375833273,17.76800156,
3.377500057,17.88034821,
3.379166603,17.92781639,
3.380833387,18.30042839,
3.382499933,17.63618469,
3.384166718,18.09890938,
3.385833502,17.86285782,
3.387500048,17.90689659,
3.389166832,17.92737198,
3.390833378,17.65653801,
3.392500162,17.60819244,
3.394166708,17.83132744,
3.395833254,18.20940971,
3.397500038,18.05720901,
3.399166584,18.11444664,
3.400833368,17.72002411,
3.402500153,17.56285667,
3.404166698,17.64302826,
3.405833483,17.87276459,
3.407500029,17.83171463,
3.409166813,17.8910675,
3.410833597,18.15372658,
3.412499905,18.09416771,
3.414166689,17.66963196,
3.415833235,18.16370201,
3.417500019,17.82645798,
3.419166803,17.95944023,
3.420833349,17.92292786,
3.422500134,17.84210587,
3.424166679,18.16418839,
3.425833464,17.96548843,
3.427500248,17.66438866,
3.429166555,18.11771584,
3.43083334,18.10424805,
3.432499886,18.13996887,
3.43416667,18.23243904,
3.435833454,17.43915367,
3.4375,17.98167419,
3.439166784,17.91263008,
3.44083333,17.89000893,
3.442500114,17.70785713,
3.444166899,17.90328789,
3.445833445,17.78183174,
3.44749999,17.94487381,
3.449166536,17.93610954,
3.450833321,17.72233582,
3.452500105,17.85724831,
3.454166651,17.85767365,
3.455833435,17.90319252,
3.457499981,17.82198334,
3.459166765,17.78581619,
3.460833549,18.03940582,
3.462500095,17.54271889,
3.46416688,17.45284843,
3.465833187,17.99631882,
3.467499971,17.86439896,
3.469166756,18.25648689,
3.470833302,18.06386185,
3.472500086,17.83819962,
3.474166632,18.03971672,
3.475833416,17.89908028,
3.4775002,18.61083031,
3.479166746,17.87696838,
3.48083353,17.49358559,
3.482499838,17.78238487,
3.484166622,18.02084732,
3.485833406,18.15873528,
3.487499952,18.26808739,
3.489166737,17.89240837,
3.490833282,17.99885178,
3.492500067,17.99241257,
3.494166851,18.14329147,
3.495833397,17.93105888,
3.497500181,18.03594208,
3.499166727,17.69872284,
3.500833273,17.81312561,
3.502500057,18.09475327,
3.504166603,18.29332924,
3.505833387,17.79193306,
3.507499933,17.6218605,
3.509166718,17.75279045,
3.510833502,17.81801796,
3.512500048,17.33841133,
3.514166832,17.91791153,
3.515833378,17.65745735,
3.517500162,17.70409775,
3.519166708,17.7526226,
3.520833254,17.96734047,
3.522500038,17.8863163,
3.524166584,17.87918091,
3.525833368,17.63526344,
3.527500153,17.56070328,
3.529166698,17.97848892,
3.530833483,17.59387779,
3.532500029,17.86925697,
3.534166813,17.65091515,
3.535833597,17.94440842,
3.537499905,17.75140762,
3.539166689,17.785326,
3.540833235,17.9638195,
3.542500019,18.06151009,
3.544166803,18.05375671,
3.545833349,17.85832405,
3.547500134,17.80763054,
3.549166679,17.92820549,
3.550833464,17.91851997,
3.552500248,18.19502449,
3.554166555,17.7928009,
3.55583334,18.13747597,
3.557499886,17.88267326,
3.55916667,18.46208191,
3.560833454,18.07608604,
3.5625,17.72560501,
3.564166784,18.00753212,
3.56583333,17.82893181,
3.567500114,17.97217369,
3.569166899,18.10552597,
3.570833445,17.66994095,
3.57249999,18.02790833,
3.574166536,18.43024445,
3.575833321,17.86115646,
3.577500105,17.89950943,
3.579166651,18.04201508,
3.580833435,17.82054329,
3.582499981,17.67939377,
3.584166765,17.99814224,
3.585833549,17.6138382,
3.587500095,17.92339706,
3.58916688,18.13863754,
3.590833187,17.77357101,
3.592499971,17.6764679,
3.594166756,17.76284599,
3.595833302,17.70650291,
3.597500086,17.89042664,
3.599166632,18.09469986,
3.600833416,17.57436371,
3.6025002,18.00514984,
3.604166746,18.15906334,
3.60583353,17.94819641,
3.607499838,17.51597023,
3.609166622,17.86614799,
3.610833406,18.06576157,
3.612499952,17.76969719,
3.614166737,17.96852112,
3.615833282,18.10605431,
3.617500067,17.79372215,
3.619166851,17.82169914,
3.620833397,17.75785446,
3.622500181,17.27009583,
3.624166727,17.76190567,
3.625833273,17.79994774,
3.627500057,17.81638718,
3.629166603,17.61007118,
3.630833387,17.59625626,
3.632499933,17.82070541,
3.634166718,17.80268288,
3.635833502,18.18888283,
3.637500048,18.05842018,
3.639166832,17.39784622,
3.640833378,17.75382423,
3.642500162,17.80286217,
3.644166708,18.17560959,
3.645833254,17.9166069,
3.647500038,17.65132713,
3.649166584,18.141819,
3.650833368,17.5900135,
3.652500153,18.04079437,
3.654166698,17.71204758,
3.655833483,17.95496559,
3.657500029,17.66769791,
3.659166813,18.01149368,
3.660833597,17.90559196,
3.662499905,17.94825745,
3.664166689,17.44103432,
3.665833235,17.80417252,
3.667500019,17.89549637,
3.669166803,17.67831802,
3.670833349,18.10109901,
3.672500134,17.62453079,
3.674166679,17.87137032,
3.675833464,18.15901184,
3.677500248,17.75898933,
3.679166555,17.98757362,
3.68083334,17.53448486,
3.682499886,17.61713409,
3.68416667,17.50371552,
3.685833454,17.78761101,
3.6875,18.13880157,
3.689166784,17.83557701,
3.69083333,17.86057281,
3.692500114,17.58033371,
3.694166899,17.82963181,
3.695833445,18.09347153,
3.69749999,17.80254936,
3.699166536,17.93801689,
3.700833321,17.68874168,
3.702500105,18.24120712,
3.704166651,17.77355194,
3.705833435,18.045784,
3.707499981,17.76775551,
3.709166765,17.8266449,
3.710833549,17.94995308,
3.712500095,18.22579384,
3.71416688,17.84987259,
3.715833187,17.90803528,
3.717499971,17.85757065,
3.719166756,17.7570858,
3.720833302,17.59453773,
3.722500086,17.85302734,
3.724166632,18.267519,
3.725833416,17.73348999,
3.7275002,17.41454887,
3.729166746,18.27349472,
3.73083353,17.72457695,
3.732499838,17.859478,
3.734166622,17.82641029,
3.735833406,17.8177681,
3.737499952,17.48799133,
3.739166737,17.85141563,
3.740833282,17.7709198,
3.742500067,18.42192268,
3.744166851,17.59982872,
3.745833397,17.87023926,
3.747500181,18.2363205,
3.749166727,17.92512131,
3.750833273,17.81535721,
3.752500057,17.61305237,
3.754166603,17.74284744,
3.755833387,18.23365021,
3.757499933,17.63948441,
3.759166718,17.89998627,
3.760833502,17.97990417,
3.762500048,17.78932381,
3.764166832,18.10136223,
3.765833378,17.81373024,
3.767500162,17.38435364,
3.769166708,17.94070816,
3.770833254,17.83780479,
3.772500038,17.73630524,
3.774166584,17.90094757,
3.775833368,17.82863617,
3.777500153,17.95642471,
3.779166698,17.60980988,
3.780833483,17.71943092,
3.782500029,17.51008415,
3.784166813,17.62521935,
3.785833597,17.89850616,
3.787499905,17.61894989,
3.789166689,17.89797211,
3.790833235,17.77462006,
3.792500019,17.99683571,
3.794166803,17.86852646,
3.795833349,17.66517258,
3.797500134,18.01334,
3.799166679,17.66495323,
3.800833464,17.66485214,
3.802500248,18.22516632,
3.804166555,17.89563179,
3.80583334,17.93788528,
3.807499886,17.80037689,
3.80916667,18.11130905,
3.810833454,17.91510391,
3.8125,17.68606377,
3.814166784,17.65089798,
3.81583333,17.92726707,
3.817500114,17.80315018,
3.819166899,17.68503189,
3.820833445,17.72224236,
3.82249999,17.89049149,
3.824166536,18.22114182,
3.825833321,17.99193764,
3.827500105,18.15571976,
3.829166651,17.88183784,
3.830833435,17.75843811,
3.832499981,18.03870201,
3.834166765,17.6146431,
3.835833549,17.43356514,
3.837500095,17.78130341,
3.83916688,17.75587463,
3.840833187,17.678339,
3.842499971,18.01872063,
3.844166756,18.08218193,
3.845833302,17.59031105,
3.847500086,18.06113434,
3.849166632,17.95721054,
3.850833416,17.67409897,
3.8525002,18.12804985,
3.854166746,17.54460335,
3.85583353,17.87077332,
3.857499838,17.91732979,
3.859166622,17.96919823,
3.860833406,17.71161079,
3.862499952,17.77157021,
3.864166737,17.80195427,
3.865833282,18.00477028,
3.867500067,17.93900681,
3.869166851,17.96510887,
3.870833397,17.6447258,
3.872500181,17.89188194,
3.874166727,17.61582565,
3.875833273,17.77293968,
3.877500057,18.34112167,
3.879166603,17.99836349,
3.880833387,17.84267426,
3.882499933,17.39084625,
3.884166718,17.84567451,
3.885833502,17.80691147,
3.887500048,17.70240402,
3.889166832,17.72917366,
3.890833378,18.02833557,
3.892500162,17.89684105,
3.894166708,17.65209389,
3.895833254,17.6226368,
3.897500038,17.88596916,
3.899166584,18.05657196,
3.900833368,17.72285271,
3.902500153,17.44849586,
3.904166698,17.48848915,
3.905833483,17.2905674,
3.907500029,17.90060997,
3.909166813,17.54047775,
3.910833597,17.91834831,
3.912499905,17.95311928,
3.914166689,17.92673111,
3.915833235,17.74883461,
3.917500019,17.9067421,
3.919166803,18.00777817,
3.920833349,17.40509033,
3.922500134,17.71129227,
3.924166679,17.86034584,
3.925833464,17.66691208,
3.927500248,17.84527588,
3.929166555,17.9726944,
3.93083334,17.66836929,
3.932499886,17.95528603,
3.93416667,17.77087593,
3.935833454,17.94198608,
3.9375,17.48739433,
3.939166784,17.90900993,
3.94083333,17.60845566,
3.942500114,17.85307503,
3.944166899,18.03530312,
3.945833445,17.86556244,
3.94749999,17.61922264,
3.949166536,17.41547585,
3.950833321,17.46758461,
3.952500105,17.63764381,
3.954166651,17.64460564,
3.955833435,17.88020134,
3.957499981,17.66560364,
3.959166765,17.38450623,
3.960833549,18.0964222,
3.962500095,18.05063057,
3.96416688,17.8608036,
3.965833187,17.5605526,
3.967499971,17.75629425,
3.969166756,17.78846169,
3.970833302,17.69030571,
3.972500086,17.58817863,
3.974166632,17.83816528,
3.975833416,17.69901085,
3.9775002,17.8552227,
3.979166746,17.55009842,
3.98083353,17.81104088,
3.982499838,17.81907463,
3.984166622,17.51894188,
3.985833406,17.59201241,
3.987499952,17.5629921,
3.989166737,17.32602119,
3.990833282,18.01039505,
3.992500067,18.22644234,
3.994166851,18.00733948,
3.995833397,17.90942764,
3.997500181,17.80222321,
3.999166727,17.51556015,
4.000833511,17.77206612,
4.002500057,17.68540573,
4.004166603,17.86304092,
4.005833626,17.53141594,
4.007500172,17.81015015,
4.009166718,17.51203728,
4.010833263,17.71465492,
4.012499809,17.72241211,
4.014166832,17.56559372,
4.015833378,17.72283936,
4.017499924,17.69968796,
4.019166946,18.2513237,
4.020833492,18.17554474,
4.022500038,17.77261162,
4.024166584,17.67573547,
4.025833607,17.67226028,
4.027500153,18.1401062,
4.029166698,17.9758091,
4.030833244,17.71757889,
4.03249979,17.8418541,
4.034166813,17.95019913,
4.035833359,17.56964302,
4.037499905,17.78959465,
4.039166927,17.6520977,
4.040833473,18.17156792,
4.042500019,18.28207397,
4.044167042,17.93336487,
4.045833111,17.38129807,
4.047500134,18.02271843,
4.049166679,17.83769608,
4.050833225,17.73340034,
4.052500248,18.06908226,
4.054166794,17.79473114,
4.05583334,17.89296722,
4.057499886,18.02233505,
4.059166908,17.65064049,
4.060833454,17.84823608,
4.0625,17.83953094,
4.064166546,17.91609001,
4.065833092,17.75693703,
4.067500114,18.11678314,
4.06916666,17.82989883,
4.070833206,17.58463478,
4.072500229,17.73357773,
4.074166775,17.74740791,
4.075833321,17.71683884,
4.077500343,17.60088348,
4.079166889,17.70722771,
4.080833435,18.10267639,
4.082499981,17.77031326,
4.084166527,17.81306267,
4.085833549,17.66795158,
4.087500095,18.03340912,
4.089166641,17.87456512,
4.090833187,17.32800865,
4.09250021,17.53914833,
4.094166756,17.86475563,
4.095833302,17.89890099,
4.097500324,17.73807907,
4.099166393,17.94183159,
4.100833416,17.70145416,
4.102499962,17.53779793,
4.104166508,17.86698532,
4.10583353,17.83963013,
4.107500076,17.81895638,
4.109166622,17.62648773,
4.110833645,17.50163651,
4.112500191,17.64364433,
4.114166737,17.79181099,
4.115833282,18.07785606,
4.117499828,17.55625916,
4.119166851,17.9038868,
4.120833397,17.58769035,
4.122499943,17.36864662,
4.124166489,18.03191566,
4.125833511,17.71018791,
4.127500057,17.83910942,
4.129166603,17.5953083,
4.130833626,17.75347519,
4.132500172,17.76596069,
4.134166718,17.91481209,
4.135833263,17.56324959,
4.137499809,17.9572506,
4.139166832,17.74984741,
4.140833378,17.77103996,
4.142499924,17.6814003,
4.144166946,17.91225624,
4.145833492,17.64284515,
4.147500038,17.54165077,
4.149166584,17.86721992,
4.150833607,17.60206795,
4.152500153,17.63466072,
4.154166698,17.67864418,
4.155833244,17.53651619,
4.15749979,17.82911301,
4.159166813,17.94519997,
4.160833359,17.88465691,
4.162499905,17.54737854,
4.164166927,17.58668137,
4.165833473,17.7594986,
4.167500019,18.04632187,
4.169167042,17.65250397,
4.170833111,17.74365425,
4.172500134,17.87591362,
4.174166679,17.76252174,
4.175833225,17.7042923,
4.177500248,17.28775024,
4.179166794,17.90216827,
4.18083334,17.86061096,
4.182499886,17.35957146,
4.184166908,17.65673256,
4.185833454,17.48120689,
4.1875,18.05624199,
4.189166546,17.8156662,
4.190833092,17.50374222,
4.192500114,17.72177315,
4.19416666,17.96201897,
4.195833206,17.88628387,
4.197500229,17.66714096,
4.199166775,18.01098061,
4.200833321,17.59136391,
4.202500343,17.58728218,
4.204166889,17.57629013,
4.205833435,17.68034363,
4.207499981,18.02887344,
4.209166527,17.81889915,
4.210833549,17.09988785,
4.212500095,17.81276703,
4.214166641,17.73187256,
4.215833187,18.06505013,
4.21750021,17.53582573,
4.219166756,17.87306404,
4.220833302,17.83563995,
4.222500324,17.83227348,
4.224166393,17.52356529,
4.225833416,17.37708855,
4.227499962,18.05312347,
4.229166508,17.82035065,
4.23083353,17.42448997,
4.232500076,17.35745811,
4.234166622,18.10302734,
4.235833645,17.86921883,
4.237500191,17.91431808,
4.239166737,17.77060699,
4.240833282,17.72549438,
4.242499828,17.64484215,
4.244166851,18.09445763,
4.245833397,17.59878349,
4.247499943,17.95790863,
4.249166489,17.71451569,
4.250833511,18.1251564,
4.252500057,17.37503242,
4.254166603,17.47144127,
4.255833626,17.36898804,
4.257500172,17.65833473,
4.259166718,17.85504532,
4.260833263,17.48333549,
4.262499809,18.16631508,
4.264166832,18.01371574,
4.265833378,17.68479156,
4.267500401,17.6278286,
4.26916647,17.90425301,
4.270833492,17.88629723,
4.272500038,17.88691521,
4.274167061,18.00251198,
4.275833607,17.21126938,
4.277499676,17.52709961,
4.279166698,17.61715889,
4.280833244,17.56080627,
4.282500267,17.96555328,
4.284166813,17.74346924,
4.285833359,18.1925087,
4.287499905,17.5377636,
4.289166927,17.73965645,
4.290833473,17.64635277,
4.292500496,17.9005909,
4.294166565,17.54375458,
4.295833111,17.95581055,
4.297500134,17.71199036,
4.299166679,17.71426582,
4.300833702,17.6564827,
4.302499771,17.33233833,
4.304166794,17.89479256,
4.30583334,17.87267876,
4.307500362,18.09755325,
4.309166908,17.51804161,
4.310833454,17.87196159,
4.3125,17.60081673,
4.314166546,17.67690086,
4.315833569,17.98261452,
4.317500114,17.88849831,
4.31916666,17.45396805,
4.320833206,17.85766792,
4.322500229,17.85171318,
4.324166775,17.31273079,
4.325833797,17.37005997,
4.327499866,17.99327469,
4.329166889,17.45197487,
4.330833435,17.77954865,
4.332499981,17.89236069,
4.334167004,17.92261505,
4.335833073,17.79965973,
4.337500095,17.30465508,
4.339166641,17.68938637,
4.340833664,17.78051758,
4.34250021,17.86667442,
4.344166756,17.81231308,
4.345833302,17.7256012,
4.347500324,17.55234718,
4.34916687,17.78992844,
4.350833416,18.04397774,
4.352499962,17.61809921,
4.354166508,17.64043236,
4.35583353,17.35404015,
4.357500076,17.43516541,
4.359167099,17.7095623,
4.360833168,17.82353973,
4.362500191,17.5927639,
4.364166737,17.74616623,
4.365833759,17.92563057,
4.367500305,17.56529045,
4.369166374,17.75362396,
4.370833397,17.67323112,
4.372499943,18.03214836,
4.374166965,17.50235939,
4.375833511,18.01403999,
4.377500057,18.1100769,
4.379166603,18.08120728,
4.380833626,17.59405518,
4.382500172,17.83787727,
4.384167194,17.35621452,
4.385833263,17.63268852,
4.387499809,17.5397377,
4.389166832,17.5513916,
4.390833378,17.5643959,
4.392500401,17.92447853,
4.39416647,17.92769051,
4.395833492,17.65152359,
4.397500038,17.5059433,
4.399167061,18.11325645,
4.400833607,18.04570198,
4.402499676,17.83111763,
4.404166698,17.98571777,
4.405833244,17.98214722,
4.407500267,17.63326073,
4.409166813,17.93777847,
4.410833359,17.55253601,
4.412499905,17.4030323,
4.414166927,17.91226387,
4.415833473,18.06918907,
4.417500496,17.76935577,
4.419166565,17.85996819,
4.420833111,17.74582291,
4.422500134,17.79768944,
4.424166679,17.44075584,
4.425833702,17.93603134,
4.427499771,18.24161911,
4.429166794,17.98233223,
4.43083334,17.78533936,
4.432500362,17.98576164,
4.434166908,17.40967941,
4.435833454,17.50969315,
4.4375,17.78768158,
4.439166546,17.53579712,
4.440833569,17.59023857,
4.442500114,17.7894516,
4.44416666,18.0811348,
4.445833206,17.81551743,
4.447500229,17.88991356,
4.449166775,17.62252617,
4.450833797,17.68495369,
4.452499866,17.73008156,
4.454166889,17.76970291,
4.455833435,17.35786057,
4.457499981,17.84026527,
4.459167004,17.86342239,
4.460833073,17.77536583,
4.462500095,17.53247833,
4.464166641,17.55826378,
4.465833664,17.55998611,
4.46750021,17.77140236,
4.469166756,17.77859497,
4.470833302,17.5911808,
4.472500324,17.88333321,
4.47416687,17.67564392,
4.475833416,17.53155327,
4.477499962,17.75000954,
4.479166508,17.716465,
4.48083353,17.57430649,
4.482500076,17.70734596,
4.484167099,17.50226784,
4.485833168,17.78103638,
4.487500191,17.8741951,
4.489166737,17.58651161,
4.490833759,17.65893936,
4.492500305,17.5894413,
4.494166374,17.59096146,
4.495833397,17.48693085,
4.497499943,17.63718414,
4.499166965,17.71807671,
4.500833511,17.50139809,
4.502500057,17.56209946,
4.504166603,17.89876175,
4.505833626,17.84120369,
4.507500172,17.74965858,
4.509167194,17.85395813,
4.510833263,17.43027306,
4.512499809,17.67724228,
4.514166832,17.71963692,
4.515833378,17.74748611,
4.517500401,17.6660862,
4.51916647,17.98991013,
4.520833492,17.98208809,
4.522500038,17.7509861,
4.524167061,17.34244919,
4.525833607,17.97354507,
4.527499676,18.01823235,
4.529166698,17.73872566,
4.530833244,17.42738152,
4.532500267,17.83262444,
4.534166813,17.64535522,
4.535833359,17.74263763,
4.537499905,17.63755417,
4.539166927,17.77944565,
4.540833473,17.97896576,
4.542500496,18.01206779,
4.544166565,17.69285965,
4.545833111,18.1123867,
4.547500134,17.80438614,
4.549166679,18.07225227,
4.550833702,17.6810627,
4.552499771,17.59329033,
4.554166794,17.71243477,
4.55583334,17.51688004,
4.557500362,17.67074966,
4.559166908,17.58744049,
4.560833454,17.56870079,
4.5625,18.03621292,
4.564166546,17.73418808,
4.565833569,17.48452377,
4.567500114,17.83221245,
4.56916666,17.53309059,
4.570833206,17.78061867,
4.572500229,17.80762482,
4.574166775,17.50501823,
4.575833797,17.52401924,
4.577499866,17.64738464,
4.579166889,18.13176537,
4.580833435,17.80802345,
4.582499981,17.48863029,
4.584167004,17.25369835,
4.585833073,17.65680122,
4.587500095,17.78847504,
4.589166641,17.8355999,
4.590833664,17.51355362,
4.59250021,17.80770302,
4.594166756,18.05901146,
4.595833302,17.74526024,
4.597500324,17.66173363,
4.59916687,17.4879837,
4.600833416,17.55879402,
4.602499962,17.5398159,
4.604166508,17.18912315,
4.60583353,17.64394188,
4.607500076,17.90661621,
4.609167099,17.9155407,
4.610833168,17.51297951,
4.612500191,17.47738457,
4.614166737,17.74102402,
4.615833759,18.19834709,
4.617500305,18.16498566,
4.619166374,17.79935265,
4.620833397,17.92551613,
4.622499943,17.75140953,
4.624166965,17.95853806,
4.625833511,17.67276382,
4.627500057,17.71520805,
4.629166603,17.46959305,
4.630833626,17.8368206,
4.632500172,17.53616524,
4.634167194,17.81715012,
4.635833263,18.09486961,
4.637499809,17.7864666,
4.639166832,17.53271294,
4.640833378,17.64425468,
4.642500401,17.36285782,
4.64416647,17.81218338,
4.645833492,17.6534481,
4.647500038,17.51764488,
4.649167061,17.79484367,
4.650833607,18.01348686,
4.652499676,18.06064034,
4.654166698,17.74057198,
4.655833244,17.69113541,
4.657500267,17.91131401,
4.659166813,17.61262703,
4.660833359,17.47211647,
4.662499905,17.89127159,
4.664166927,17.59167671,
4.665833473,18.0284481,
4.667500496,17.97507858,
4.669166565,17.46943855,
4.670833111,17.53905869,
4.672500134,17.48773003,
4.674166679,17.82843971,
4.675833702,18.15413284,
4.677499771,17.84191132,
4.679166794,17.6023159,
4.68083334,17.23066902,
4.682500362,17.85310173,
4.684166908,17.30220413,
4.685833454,17.7968998,
4.6875,17.63965034,
4.689166546,17.61133766,
4.690833569,17.61395264,
4.692500114,17.88422012,
4.69416666,17.50091362,
4.695833206,17.80562782,
4.697500229,17.66889572,
4.699166775,17.76569366,
4.700833797,17.54096413,
4.702499866,17.76937294,
4.704166889,17.73441505,
4.705833435,18.09347916,
4.707499981,17.20928764,
4.709167004,17.7951107,
4.710833073,17.61356163,
4.712500095,17.72522354,
4.714166641,17.22226906,
4.715833664,17.67267609,
4.71750021,17.58981133,
4.719166756,18.12080574,
4.720833302,17.73142433,
4.722500324,17.77879524,
4.72416687,17.68577576,
4.725833416,17.85872459,
4.727499962,17.99392891,
4.729166508,17.69363403,
4.73083353,17.79003334,
4.732500076,17.2412796,
4.734167099,17.57022285,
4.735833168,17.71509933,
4.737500191,17.43628311,
4.739166737,17.78248215,
4.740833759,17.8503418,
4.742500305,17.41953468,
4.744166374,17.54932213,
4.745833397,17.46038437,
4.747499943,17.38521194,
4.749166965,17.46533012,
4.750833511,17.5604248,
4.752500057,17.6510849,
4.754166603,17.55258369,
4.755833626,17.66867256,
4.757500172,17.68963814,
4.759167194,17.67281723,
4.760833263,17.67525101,
4.762499809,17.68194008,
4.764166832,17.67251015,
4.765833378,17.64674377,
4.767500401,17.82702827,
4.76916647,17.51143646,
4.770833492,17.56786537,
4.772500038,17.47234154,
4.774167061,17.74448204,
4.775833607,17.81806755,
4.777499676,18.03412628,
4.779166698,17.44709206,
4.780833244,17.60383224,
4.782500267,17.87551117,
4.784166813,17.52297592,
4.785833359,17.70833969,
4.787499905,17.57017136,
4.789166927,17.42828751,
4.790833473,17.48134041,
4.792500496,17.57146072,
4.794166565,17.5452137,
4.795833111,17.54240227,
4.797500134,17.98055458,
4.799166679,17.59805489,
4.800833702,17.88111496,
4.802499771,17.91345024,
4.804166794,17.70373917,
4.80583334,17.88920593,
4.807500362,18.02494431,
4.809166908,17.97973251,
4.810833454,17.51372528,
4.8125,18.04206276,
4.814166546,17.25379944,
4.815833569,17.7734642,
4.817500114,17.68484879,
4.81916666,17.80392838,
4.820833206,17.80244827,
4.822500229,17.80528831,
4.824166775,17.43136597,
4.825833797,17.60296822,
4.827499866,17.65262985,
4.829166889,17.80643654,
4.830833435,17.67195702,
4.832499981,17.40003395,
4.834167004,17.82864571,
4.835833073,17.41118622,
4.837500095,17.48360443,
4.839166641,18.26184845,
4.840833664,17.6488533,
4.84250021,17.71048164,
4.844166756,17.70079994,
4.845833302,18.1036644,
4.847500324,17.9393692,
4.84916687,17.48901749,
4.850833416,17.67076874,
4.852499962,17.84280205,
4.854166508,17.94781494,
4.85583353,17.87581444,
4.857500076,17.50093079,
4.859167099,17.83475304,
4.860833168,17.87722969,
4.862500191,17.50884628,
4.864166737,17.70764542,
4.865833759,17.67782211,
4.867500305,17.98783112,
4.869166374,17.64230728,
4.870833397,18.21095848,
4.872499943,17.89669228,
4.874166965,17.55285263,
4.875833511,17.83870697,
4.877500057,17.5558815,
4.879166603,17.54073524,
4.880833626,17.69958878,
4.882500172,17.84532928,
4.884167194,17.59142113,
4.885833263,17.87343788,
4.887499809,17.59876823,
4.889166832,17.74544144,
4.890833378,18.06768608,
4.892500401,17.77160835,
4.89416647,17.79827499,
4.895833492,17.91598511,
4.897500038,17.92159081,
4.899167061,17.63716316,
4.900833607,17.38831902,
4.902499676,17.36897087,
4.904166698,17.61875153,
4.905833244,17.49591064,
4.907500267,17.84727097,
4.909166813,17.87900925,
4.910833359,17.92508888,
4.912499905,17.71990967,
4.914166927,17.83404732,
4.915833473,17.25782394,
4.917500496,17.72794533,
4.919166565,17.66936684,
4.920833111,17.86871719,
4.922500134,17.55606079,
4.924166679,17.95264053,
4.925833702,18.03831291,
4.927499771,17.6415062,
4.929166794,17.80159569,
4.93083334,17.56069565,
4.932500362,17.54281044,
4.934166908,17.94731331,
4.935833454,17.55794525,
4.9375,17.59498024,
4.939166546,17.76826668,
4.940833569,17.85167694,
4.942500114,17.40157127,
4.94416666,17.91311264,
4.945833206,18.03517532,
4.947500229,17.73407364,
4.949166775,17.62864685,
4.950833797,17.83132553,
4.952499866,17.54406548,
4.954166889,17.64021111,
4.955833435,17.8491478,
4.957499981,17.76203156,
4.959167004,17.41946793,
4.960833073,17.65323448,
4.962500095,17.39088821,
4.964166641,17.67188263,
4.965833664,17.81499863,
4.96750021,17.76383972,
4.969166756,17.86853981,
4.970833302,17.60458755,
4.972500324,17.77529716,
4.97416687,17.90335846,
4.975833416,17.49197197,
4.977499962,17.38866806,
4.979166508,17.36599922,
4.98083353,17.76551247,
4.982500076,17.67407799,
4.984167099,18.13839912,
4.985833168,17.61489677,
4.987500191,17.62759781,
4.989166737,17.88415909,
4.990833759,17.60682678,
4.992500305,17.7268734,
4.994166374,17.76897812,
4.995833397,17.45868492,
4.997499943,18.02186966,
4.999166965,17.23708534,
5.000833511,17.30314064,
5.002500057,17.78796577,
5.004166603,17.65244484,
5.005833626,17.56925964,
5.007500172,17.37690926,
5.009167194,17.82488632,
5.010833263,18.16699982,
5.012499809,17.82739067,
5.014166832,17.65776253,
5.015833378,17.57766342,
5.017500401,17.57369041,
5.01916647,17.91179085,
5.020833492,17.34980583,
5.022500038,17.76719856,

