1,,
Time (min),Intensity (a.u.),
0.0008333333535,20.71444893,
0.002500000177,20.35943985,
0.004166666884,20.23011017,
0.005833333358,20.13356972,
0.007500000298,20.19067574,
0.009166667238,20.328825,
0.01083333418,20.14569855,
0.01250000019,20.43958473,
0.01416666713,20.47023964,
0.01583333313,20.67449188,
0.01750000194,20.62055016,
0.01916666701,20.56758308,
0.02083333395,20.25773048,
0.02250000089,20.29029846,
0.02416666783,20.20256615,
0.02583333477,20.034832,
0.02749999985,19.6529541,
0.02916666679,20.50159454,
0.03083333373,20.32154274,
0.03250000253,20.3923378,
0.03416666761,20.58197403,
0.03583333641,19.99459648,
0.03750000149,20.2914772,
0.03916667029,20.01331139,
0.04083333537,20.47026443,
0.04250000045,20.71587563,
0.04416666925,20.11517906,
0.04583333433,20.19639397,
0.04750000313,20.38332748,
0.04916666821,20.58267403,
0.05083333328,20.20802116,
0.05250000209,20.45807266,
0.05416666716,20.20154381,
0.05583333597,20.53159332,
0.05750000104,20.11350822,
0.05916666612,20.19271088,
0.06083333492,20.34212685,
0.0625,20.51088524,
0.06416667253,20.07003593,
0.0658333376,20.03428268,
0.06750000268,20.08664703,
0.06916666776,20.32007027,
0.07083333284,20.33857918,
0.07249999791,20.67020798,
0.07416667044,19.68911362,
0.07583333552,20.10567665,
0.0775000006,19.91864777,
0.07916666567,20.36867142,
0.08083333075,20.26979256,
0.08250000328,20.20082474,
0.08416666836,20.74394226,
0.08583333343,20.22941208,
0.08749999851,20.16628075,
0.08916666359,20.18496895,
0.09083333611,20.66322899,
0.09250000119,20.07263947,
0.09416666627,20.72829247,
0.09583333135,20.33968353,
0.09749999642,20.63931656,
0.09916666895,20.30366135,
0.100833334,20.40275764,
0.1024999991,20.46512222,
0.1041666642,20.06942749,
0.1058333293,20.08189392,
0.1075000018,20.10167313,
0.1091666669,20.10831261,
0.1108333319,20.39146996,
0.112499997,20.51591301,
0.1141666621,20.48543739,
0.1158333346,19.88167763,
0.1174999997,19.88047028,
0.1191666648,20.40828323,
0.1208333299,20.16088104,
0.1224999949,20.54914284,
0.1241666749,20.38399887,
0.1258333325,20.08278847,
0.1274999976,20.3143425,
0.1291666627,20.77897263,
0.1308333278,19.88498688,
0.1325000077,20.15649796,
0.1341666728,20.59927368,
0.1358333379,19.90709686,
0.137500003,19.9458313,
0.1391666681,20.45905685,
0.1408333331,20.26728821,
0.1424999982,19.82510948,
0.1441666782,20.61544609,
0.1458333284,20.55683899,
0.1475000083,20.30795288,
0.1491666585,20.11953163,
0.1508333385,20.28948975,
0.1525000036,19.80197906,
0.1541666687,20.64176941,
0.1558333337,20.34866524,
0.1574999988,20.30411148,
0.1591666639,19.91828156,
0.1608333439,20.59178543,
0.162499994,20.51187897,
0.164166674,19.91674042,
0.1658333242,20.36329079,
0.1675000042,20.04345131,
0.1691666692,20.12339973,
0.1708333343,20.3363533,
0.1724999994,20.2873764,
0.1741666645,20.52071953,
0.1758333296,20.30712891,
0.1775000095,20.40437126,
0.1791666597,20.04698181,
0.1808333397,20.38497162,
0.1824999899,20.39998817,
0.1841666698,20.37473297,
0.1858333498,20.44166756,
0.1875,20.41596413,
0.18916668,20.23013878,
0.1908333302,20.34756851,
0.1925000101,20.29836845,
0.1941666752,20.53490448,
0.1958333403,20.7921257,
0.1975000054,20.42086983,
0.1991666704,20.31984329,
0.2008333355,20.54216194,
0.2025000155,19.77576828,
0.2041666657,20.41992569,
0.2058333457,20.61276627,
0.2074999958,20.40997887,
0.2091666758,20.19090271,
0.2108333409,20.66312981,
0.212500006,20.29057503,
0.214166671,20.33868027,
0.2158333361,20.10471344,
0.2175000012,20.04310608,
0.2191666812,20.20955467,
0.2208333313,20.33122253,
0.2225000113,20.43097687,
0.2241666615,20.49757195,
0.2258333415,20.35507011,
0.2275000066,20.584095,
0.2291666716,20.11023521,
0.2308333367,20.02601242,
0.2325000018,20.09684372,
0.2341666669,20.13165665,
0.2358333468,20.4070816,
0.237499997,20.36503983,
0.239166677,20.57265472,
0.2408333272,20.42557907,
0.2425000072,20.48923492,
0.2441666722,20.30337906,
0.2458333373,20.43278503,
0.2475000024,20.46076012,
0.2491666675,19.8492775,
0.2508333325,20.22031784,
0.2524999976,20.08102608,
0.2541666627,19.87362862,
0.2558333278,19.90853119,
0.2574999928,20.47916412,
0.2591666579,20.5786438,
0.2608333528,20.24071693,
0.2624999881,20.50601959,
0.264166683,20.30080605,
0.2658333182,19.89588928,
0.2675000131,20.07383156,
0.2691666484,19.98280716,
0.2708333433,20.12478828,
0.2725000083,20.61989975,
0.2741666734,20.55609322,
0.2758333385,20.14069557,
0.2775000036,19.93097305,
0.2791666687,19.83362198,
0.2808333337,20.61935234,
0.2824999988,20.50270653,
0.2841666937,20.2075386,
0.285833329,20.36104774,
0.287499994,20.35687828,
0.2891666591,20.14684677,
0.290833354,20.23026085,
0.2925000191,20.72535896,
0.2941666543,20.29748917,
0.2958333194,20.18310738,
0.2975000143,20.395998,
0.2991666794,20.27289391,
0.3008333445,20.51938248,
0.3024999797,20.43592072,
0.3041666746,20.32894325,
0.3058333397,19.98347664,
0.3075000048,20.60926056,
0.3091666996,20.21440506,
0.3108333349,20.51610947,
0.3125,20.30301285,
0.3141666651,20.54835129,
0.31583336,20.34159851,
0.317500025,19.96794701,
0.3191666603,20.39498711,
0.3208333254,20.02985191,
0.3225000203,20.3224678,
0.3241666853,20.23199272,
0.3258333504,20.24211502,
0.3274999857,20.33596992,
0.3291666806,20.10351372,
0.3308333457,20.31853867,
0.3325000107,20.18102837,
0.3341666758,20.51063919,
0.3358333409,20.39519691,
0.337500006,20.09340096,
0.339166671,20.61774254,
0.3408333361,20.00372505,
0.342500031,19.95131683,
0.3441666663,20.53479004,
0.3458333313,20.29242134,
0.3474999964,20.60366631,
0.3491666913,20.2023201,
0.3508333564,19.9100914,
0.3524999917,20.6801281,
0.3541666567,20.72584724,
0.3558333516,20.70634079,
0.3575000167,20.17007446,
0.3591666818,20.5068779,
0.360833317,20.34415627,
0.3625000119,20.0102272,
0.364166677,20.26376915,
0.3658333421,20.99076843,
0.3675000072,20.19845581,
0.3691666722,20.62522697,
0.3708333373,20.18870354,
0.3725000024,20.43246269,
0.3741666675,20.31443405,
0.3758333623,20.08185768,
0.3774999976,20.04048347,
0.3791666627,20.33254051,
0.3808333278,20.44284821,
0.3825000226,20.46427917,
0.3841666877,20.42116356,
0.385833323,20.00912285,
0.3874999881,20.35883904,
0.389166683,20.60058022,
0.390833348,20.06331253,
0.3925000131,20.16276169,
0.3941666484,19.84202003,
0.3958333433,20.12768173,
0.3975000083,20.26543617,
0.3991666734,20.31785011,
0.4008333385,20.27019119,
0.4025000036,20.0623951,
0.4041666687,20.04201698,
0.4058333337,20.29026985,
0.4074999988,20.17043114,
0.4091666937,20.68027306,
0.410833329,20.30571175,
0.412499994,20.07001495,
0.4141666591,20.25607681,
0.415833354,20.72495461,
0.4175000191,20.48066521,
0.4191666543,20.18764687,
0.4208333194,19.92185593,
0.4225000143,20.59096909,
0.4241666794,19.96915245,
0.4258333445,20.07518578,
0.4274999797,20.40997887,
0.4291666746,20.42870331,
0.4308333397,20.22229004,
0.4325000048,20.50632477,
0.4341666996,20.47323036,
0.4358333349,20.30487061,
0.4375,19.87807655,
0.4391666651,20.19705582,
0.44083336,19.75942039,
0.442500025,20.4050045,
0.4441666603,20.08238029,
0.4458333254,20.18699455,
0.4475000203,20.13152885,
0.4491666853,20.58036613,
0.4508333504,20.35241699,
0.4524999857,20.03413391,
0.4541666806,20.48241425,
0.4558333457,20.40026093,
0.4575000107,20.07042694,
0.4591666758,20.03453827,
0.4608333409,20.18252373,
0.462500006,20.21502876,
0.464166671,20.22039032,
0.4658333361,20.2026825,
0.467500031,20.31741142,
0.4691666663,20.60979271,
0.4708333313,20.11110115,
0.4724999964,20.11637878,
0.4741666913,20.21188164,
0.4758333564,20.38571739,
0.4774999917,19.83600426,
0.4791666567,19.72364235,
0.4808333516,20.50667763,
0.4825000167,20.2028656,
0.4841666818,20.33100891,
0.485833317,20.27499962,
0.4875000119,20.34574509,
0.489166677,20.38260269,
0.4908333421,20.40242958,
0.4925000072,20.70299339,
0.4941666722,20.52248764,
0.4958333373,20.38987541,
0.4975000024,20.49211884,
0.4991666675,19.8816433,
0.5008333325,20.3112545,
0.5024999976,20.41580391,
0.5041666627,19.5681076,
0.5058333278,20.23194504,
0.5074999928,20.68039703,
0.5091666579,20.35298347,
0.510833323,20.57185745,
0.5124999881,20.50653458,
0.5141666532,20.32253456,
0.5158333182,20.46302414,
0.5175000429,20.31131363,
0.5191666484,20.03053284,
0.5208333135,20.8230114,
0.5224999785,20.48854446,
0.5241667032,20.3416481,
0.5258333683,20.314188,
0.5274999738,20.43313026,
0.5291666389,20.19592857,
0.5308333635,20.15167046,
0.5325000286,20.71783066,
0.5341666341,20.07192421,
0.5358333588,20.34918213,
0.5375000238,20.52314758,
0.5391666889,20.24516678,
0.540833354,20.42465782,
0.5424999595,20.30847359,
0.5441666842,20.39023209,
0.5458333492,20.25437927,
0.5475000143,20.30474854,
0.5491666794,20.56011963,
0.5508333445,20.26087761,
0.5525000095,20.37314606,
0.5541666746,20.33340454,
0.5558333993,19.97908592,
0.5575000048,20.10747528,
0.5591666698,19.98635292,
0.5608333349,20.18206406,
0.5625,20.17619896,
0.5641667247,20.10002518,
0.5658333302,20.56947708,
0.5674999952,20.39284325,
0.5691667199,20.48070526,
0.5708333254,20.44319153,
0.5725000501,20.04105377,
0.5741666555,20.00591087,
0.5758333206,20.11753082,
0.5775000453,20.320755,
0.5791666508,20.29423332,
0.5808333755,20.66535568,
0.5825000405,20.13128853,
0.584166646,20.42780876,
0.5858333707,20.29987335,
0.5874999762,20.64390564,
0.5891667008,20.34549522,
0.5908333659,20.42214394,
0.5924999714,20.60154724,
0.5941666961,20.27248383,
0.5958333611,20.68953133,
0.5975000262,19.90293884,
0.5991666913,20.38170624,
0.6008332968,20.20189857,
0.6025000215,20.43340302,
0.6041666865,19.97407341,
0.6058333516,20.48298645,
0.6075000167,20.35138321,
0.6091666818,20.41502571,
0.6108333468,20.38238716,
0.6125000119,20.49839401,
0.614166677,20.26994705,
0.6158333421,20.26194572,
0.6175000072,20.11714554,
0.6191666722,20.00035286,
0.6208333373,20.63068962,
0.622500062,19.85596466,
0.6241666675,20.53056526,
0.6258333325,20.06873131,
0.6274999976,20.38161659,
0.6291666627,20.07757759,
0.6308333874,20.44272995,
0.6324999928,20.2103672,
0.6341666579,20.00240326,
0.6358333826,19.96734428,
0.6374999881,20.53873062,
0.6391667128,20.34348106,
0.6408333182,20.08683014,
0.6424999833,20.16595459,
0.644166708,20.23800278,
0.6458333135,19.94869041,
0.6475000381,19.93117523,
0.6491667032,20.49823761,
0.6508333087,20.68719292,
0.6525000334,20.10692024,
0.6541666389,19.98163605,
0.6558333635,20.32924843,
0.6575000286,19.94832993,
0.6591666341,20.25620651,
0.6608333588,20.24707413,
0.6625000238,20.32183647,
0.6641666889,20.53082275,
0.665833354,19.97590637,
0.6674999595,20.36476898,
0.6691666842,20.18428612,
0.6708333492,20.35029793,
0.6725000143,19.99551964,
0.6741666794,20.40382004,
0.6758333445,20.08839417,
0.6775000095,20.03626823,
0.6791666746,20.26299667,
0.6808333993,20.46261215,
0.6825000048,20.21254539,
0.6841666698,20.22953033,
0.6858333349,19.9354248,
0.6875,20.42101479,
0.6891667247,20.19521141,
0.6908333302,20.48435974,
0.6924999952,20.19773483,
0.6941667199,20.33476448,
0.6958333254,20.16002655,
0.6975000501,20.29001045,
0.6991666555,20.52092934,
0.7008333206,20.15316963,
0.7025000453,20.34558105,
0.7041666508,20.38023949,
0.7058333755,19.92767525,
0.7075000405,20.42337608,
0.709166646,20.37049103,
0.7108333707,20.08954811,
0.7124999762,20.17311478,
0.7141667008,20.13708305,
0.7158333659,20.42798615,
0.7174999714,20.42474747,
0.7191666961,20.65247345,
0.7208333611,20.48631287,
0.7225000262,20.80436516,
0.7241666913,20.16152763,
0.7258332968,20.14379883,
0.7275000215,20.15904808,
0.7291666865,20.06810951,
0.7308333516,20.51103401,
0.7325000167,20.35463715,
0.7341666818,20.1886692,
0.7358333468,20.37469101,
0.7375000119,20.35217476,
0.739166677,20.10147858,
0.7408333421,20.24434471,
0.7425000072,20.55811501,
0.7441666722,20.22247124,
0.7458333373,20.55847359,
0.747500062,20.1901722,
0.7491666675,20.55629158,
0.7508333325,20.29032326,
0.7524999976,20.08505058,
0.7541666627,20.90225601,
0.7558333874,19.83113861,
0.7574999928,19.91858673,
0.7591666579,20.23295403,
0.7608333826,20.48470497,
0.7624999881,20.39536476,
0.7641667128,20.41477776,
0.7658333182,20.14991379,
0.7674999833,20.62344933,
0.769166708,20.2158699,
0.7708333135,20.04460907,
0.7725000381,20.47294426,
0.7741667032,19.86654282,
0.7758333087,19.95233154,
0.7775000334,20.314394,
0.7791666389,20.41083145,
0.7808333635,19.92926979,
0.7825000286,20.56566048,
0.7841666341,20.63461113,
0.7858333588,20.31548882,
0.7875000238,20.38562393,
0.7891666889,20.39589119,
0.790833354,20.20694923,
0.7924999595,20.11403275,
0.7941666842,20.33155251,
0.7958333492,20.32972908,
0.7975000143,20.12622261,
0.7991666794,20.1924572,
0.8008333445,20.39332199,
0.8025000095,20.02324104,
0.8041666746,19.82654762,
0.8058333993,19.92060089,
0.8075000048,20.03240776,
0.8091666698,20.37941933,
0.8108333349,20.14808464,
0.8125,20.88237572,
0.8141667247,20.28942871,
0.8158333302,19.98453903,
0.8174999952,20.15978813,
0.8191667199,20.27461052,
0.8208333254,19.93663788,
0.8225000501,20.18375778,
0.8241666555,20.39681435,
0.8258333206,20.42153358,
0.8275000453,20.04953957,
0.8291666508,20.39285278,
0.8308333755,20.56165504,
0.8325000405,19.82962608,
0.834166646,20.40358353,
0.8358333707,20.365839,
0.8374999762,20.15378761,
0.8391667008,20.69781876,
0.8408333659,20.39540672,
0.8424999714,20.27501678,
0.8441666961,20.20771027,
0.8458333611,20.20644951,
0.8475000262,20.20724106,
0.8491666913,20.22961235,
0.8508332968,20.27243614,
0.8525000215,20.48577118,
0.8541666865,20.49964905,
0.8558333516,20.23689079,
0.8575000167,20.48790359,
0.8591666818,20.39315796,
0.8608333468,20.11776543,
0.8625000119,20.2508812,
0.864166677,20.03597641,
0.8658333421,20.19728851,
0.8675000072,20.24358749,
0.8691666722,20.54636955,
0.8708333373,20.72072601,
0.872500062,20.36356735,
0.8741666675,20.09395027,
0.8758333325,20.82575989,
0.8774999976,20.21676826,
0.8791666627,20.40245247,
0.8808333874,20.28923988,
0.8824999928,20.13944435,
0.8841666579,20.16381264,
0.8858333826,20.2283268,
0.8874999881,20.14259338,
0.8891667128,20.40659714,
0.8908333182,20.32634926,
0.8924999833,20.19622612,
0.894166708,20.29821014,
0.8958333135,20.74856567,
0.8975000381,20.42638969,
0.8991667032,19.89742661,
0.9008333087,20.30396843,
0.9025000334,20.18192673,
0.9041666389,20.20579147,
0.9058333635,20.35893059,
0.9075000286,20.49182701,
0.9091666341,20.18288422,
0.9108333588,20.43853378,
0.9125000238,19.90663338,
0.9141666889,20.34285736,
0.915833354,20.48052979,
0.9174999595,19.96655655,
0.9191666842,20.23455429,
0.9208333492,20.53214264,
0.9225000143,20.27745628,
0.9241666794,19.81575394,
0.9258333445,20.44136429,
0.9275000095,19.98491859,
0.9291666746,20.18046951,
0.9308333993,20.03216553,
0.9325000048,20.01401329,
0.9341666698,20.2628212,
0.9358333349,20.25598145,
0.9375,20.56920815,
0.9391667247,19.82772827,
0.9408333302,19.97760582,
0.9424999952,20.47929764,
0.9441667199,20.07385254,
0.9458333254,20.19078827,
0.9475000501,20.34902763,
0.9491666555,19.98368454,
0.9508333206,20.50297737,
0.9525000453,20.36887169,
0.9541666508,20.25502396,
0.9558333755,19.72742844,
0.9575000405,20.62561035,
0.959166646,20.17534065,
0.9608333707,20.18688965,
0.9624999762,19.67319107,
0.9641667008,20.06261444,
0.9658333659,20.06167412,
0.9674999714,20.06781769,
0.9691666961,20.20903206,
0.9708333611,20.02781105,
0.9725000262,20.1314621,
0.9741666913,20.27970695,
0.9758332968,20.31775284,
0.9775000215,20.46097374,
0.9791666865,20.1616497,
0.9808333516,20.34849739,
0.9825000167,20.34106827,
0.9841666818,20.46634102,
0.9858333468,20.18377495,
0.9875000119,20.23722076,
0.989166677,20.38925552,
0.9908333421,20.376194,
0.9925000072,19.75194359,
0.9941666722,20.24136734,
0.9958333373,20.40114403,
0.997500062,20.36035728,
0.9991666675,20.24329758,
1.000833273,20.3586216,
1.002500057,20.21763611,
1.004166722,20.03189087,
1.005833387,20.29256439,
1.007500052,20.08185959,
1.009166598,20.21560097,
1.010833383,20.11283302,
1.012500048,20.28151512,
1.014166713,20.22883606,
1.015833378,20.53550148,
1.017500043,20.34006882,
1.019166708,20.14582062,
1.020833373,20.05058289,
1.022500038,20.24976158,
1.024166703,20.24752235,
1.025833368,20.02215576,
1.027500033,20.08324051,
1.029166698,19.789011,
1.030833364,20.32200623,
1.032500029,20.22337151,
1.034166694,20.20573044,
1.035833359,20.40559578,
1.037500024,19.97540283,
1.039166689,21.71222878,
1.040833354,22.89216995,
1.042500019,23.32672691,
1.044166684,23.7553215,
1.045833349,24.0662899,
1.047500014,24.82736778,
1.049166679,23.52210808,
1.050833344,21.69376373,
1.05250001,22.64974022,
1.054166675,21.16096115,
1.05583334,21.80724525,
1.057500005,19.43146515,
1.05916667,20.96599007,
1.060833335,20.4783268,
1.0625,20.16322327,
1.064166665,23.51772881,
1.06583333,24.40028572,
1.067499995,20.65652084,
1.06916666,21.65998268,
1.070833325,20.66679764,
1.07249999,23.52238083,
1.074166775,19.97670174,
1.07583344,24.8915863,
1.077499986,20.10557365,
1.079166651,24.11945724,
1.080833316,19.49792671,
1.0825001,19.74784851,
1.084166765,19.5619278,
1.085833311,19.7852459,
1.087499976,19.76415062,
1.089166641,20.07691574,
1.090833426,19.57584763,
1.092500091,19.82703972,
1.094166636,19.75721931,
1.095833302,19.79961395,
1.097499967,19.45881462,
1.099166751,19.79322624,
1.100833416,19.74067879,
1.102500081,19.92046165,
1.104166627,19.94820404,
1.105833292,19.57954216,
1.107500076,19.73802376,
1.109166741,19.44734192,
1.110833406,19.45929909,
1.112499952,19.59675407,
1.114166617,19.79048157,
1.115833402,19.38810921,
1.117500067,19.72916603,
1.119166732,19.30729866,
1.120833278,19.52822685,
1.122499943,19.17159271,
1.124166727,19.78124046,
1.125833392,19.54359436,
1.127500057,19.62234497,
1.129166722,19.64398193,
1.130833268,19.47637749,
1.132500052,19.35971642,
1.134166718,19.21940422,
1.135833383,19.29493904,
1.137500048,19.16807365,
1.139166594,19.42100143,
1.140833378,19.21990585,
1.142500043,19.56876945,
1.144166708,18.94946671,
1.145833373,19.60246849,
1.147499919,19.56575394,
1.149166703,19.04123306,
1.150833368,19.5229187,
1.152500033,19.47506142,
1.154166698,18.6930294,
1.155833364,19.26834488,
1.157500029,19.37078857,
1.159166694,18.9550972,
1.160833359,19.20031548,
1.162500024,19.03220558,
1.164166689,19.3907299,
1.165833354,19.23813248,
1.167500019,19.626091,
1.169166684,19.26374626,
1.170833349,18.97370911,
1.172500014,18.82581329,
1.174166799,19.30570984,
1.175833344,19.08274841,
1.17750001,18.92711258,
1.179166675,19.01469803,
1.18083334,18.91665077,
1.182500124,18.84451294,
1.18416667,19.19564056,
1.185833335,19.3057785,
1.1875,18.89939308,
1.189166665,18.81238174,
1.190833449,18.87572479,
1.192499995,19.21848106,
1.19416666,18.61584663,
1.195833325,19.03855705,
1.19749999,18.6713829,
1.199166775,18.87555122,
1.20083344,18.7673111,
1.202499986,19.18597984,
1.204166651,19.26783562,
1.205833316,18.67400932,
1.2075001,18.71146584,
1.209166765,18.82548141,
1.210833311,18.72898293,
1.212499976,18.79053497,
1.214166641,18.94652367,
1.215833426,18.51078987,
1.217500091,18.68413162,
1.219166636,18.78530884,
1.220833302,18.72463036,
1.222499967,18.65431404,
1.224166751,18.75302124,
1.225833416,18.46416855,
1.227500081,18.61796379,
1.229166627,18.65551949,
1.230833292,18.82365608,
1.232500076,18.47817802,
1.234166741,18.3583374,
1.235833406,18.6138401,
1.237499952,18.59573364,
1.239166617,18.61035728,
1.240833402,18.49063683,
1.242500067,18.59165573,
1.244166732,18.52049065,
1.245833278,18.48265839,
1.247499943,18.7028923,
1.249166727,18.72522736,
1.250833392,18.42492104,
1.252500057,18.29070663,
1.254166722,18.73038864,
1.255833268,18.50053787,
1.257500052,18.5778923,
1.259166718,18.75246811,
1.260833383,18.90720558,
1.262500048,18.60067177,
1.264166594,18.6491375,
1.265833378,18.36305809,
1.267500043,18.23458862,
1.269166708,18.50864601,
1.270833373,18.46726418,
1.272499919,18.31103325,
1.274166703,18.48266411,
1.275833368,18.6800251,
1.277500033,18.45324326,
1.279166698,18.2510376,
1.280833364,18.43755722,
1.282500029,18.58324242,
1.284166694,18.1012764,
1.285833359,18.28351784,
1.287500024,18.35838318,
1.289166689,18.57138634,
1.290833354,18.2845974,
1.292500019,18.33456612,
1.294166684,18.2168026,
1.295833349,18.79231071,
1.297500014,18.56860924,
1.299166799,18.51324654,
1.300833344,18.15345383,
1.30250001,18.06314659,
1.304166675,18.14405251,
1.30583334,18.29602242,
1.307500124,18.76950645,
1.30916667,17.93933678,
1.310833335,17.80299759,
1.3125,17.89941597,
1.314166665,17.84097481,
1.315833449,17.88616943,
1.317499995,18.4661274,
1.31916666,18.16760635,
1.320833325,18.19170761,
1.32249999,18.1276226,
1.324166775,18.72954559,
1.32583344,18.62982559,
1.327499986,17.72429657,
1.329166651,17.90369987,
1.330833316,18.61670113,
1.3325001,17.9610424,
1.334166765,17.75794029,
1.335833311,17.87561798,
1.337499976,17.93562889,
1.339166641,18.3670578,
1.340833426,17.64952278,
1.342500091,18.0537262,
1.344166636,17.7980938,
1.345833302,18.18407631,
1.347499967,18.26101303,
1.349166751,18.18736839,
1.350833416,17.85502434,
1.352500081,17.83608437,
1.354166627,18.09487915,
1.355833292,18.03672981,
1.357500076,17.65592575,
1.359166741,17.7033329,
1.360833406,17.97784805,
1.362499952,17.72364426,
1.364166617,17.74627495,
1.365833402,17.64349556,
1.367500067,17.71275902,
1.369166732,17.89136314,
1.370833278,17.5930481,
1.372499943,17.894701,
1.374166727,17.89210129,
1.375833392,17.69558144,
1.377500057,17.55888367,
1.379166722,18.09645653,
1.380833268,17.91479492,
1.382500052,17.81000328,
1.384166718,17.75256157,
1.385833383,17.92468834,
1.387500048,18.09607887,
1.389166594,17.59719849,
1.390833378,17.64417839,
1.392500043,17.80795288,
1.394166708,17.43411064,
1.395833373,17.73612213,
1.397499919,18.07300758,
1.399166703,17.58460426,
1.400833368,17.32047081,
1.402500033,17.81227875,
1.404166698,18.16364288,
1.405833364,17.46531296,
1.407500029,17.9133625,
1.409166694,17.50497627,
1.410833359,17.94454384,
1.412500024,17.63926315,
1.414166689,17.86128235,
1.415833354,17.65642548,
1.417500019,17.2000103,
1.419166684,17.85063171,
1.420833349,17.4619503,
1.422500014,17.37507439,
1.424166799,17.68929291,
1.425833344,18.0294838,
1.42750001,17.11517525,
1.429166675,17.48733521,
1.43083334,17.85640907,
1.432500124,17.54915047,
1.43416667,17.99723053,
1.435833335,17.64740562,
1.4375,17.75449944,
1.439166665,17.90945435,
1.440833449,17.69512177,
1.442499995,17.75057793,
1.44416666,17.83759308,
1.445833325,17.29754639,
1.44749999,17.77532578,
1.449166775,17.46914482,
1.45083344,17.54541397,
1.452499986,17.82500839,
1.454166651,17.46891594,
1.455833316,17.5737915,
1.4575001,17.83647728,
1.459166765,17.58517647,
1.460833311,17.49458504,
1.462499976,17.59549904,
1.464166641,17.58203125,
1.465833426,17.38396072,
1.467500091,17.56047058,
1.469166636,17.48522949,
1.470833302,17.31495476,
1.472499967,17.54232979,
1.474166751,17.40681076,
1.475833416,17.27748108,
1.477500081,17.9394474,
1.479166627,17.15032578,
1.480833292,17.44375038,
1.482500076,17.49947357,
1.484166741,16.86333656,
1.485833406,17.30510521,
1.487499952,17.05987358,
1.489166617,17.46027946,
1.490833402,17.41088295,
1.492500067,17.23921967,
1.494166732,17.35622025,
1.495833278,17.27487373,
1.497499943,17.4305706,
1.499166727,17.0759182,
1.500833392,17.45106506,
1.502500057,17.57317162,
1.504166722,17.33149147,
1.505833268,17.26480293,
1.507500052,17.46455765,
1.509166718,17.37579155,
1.510833383,17.43884468,
1.512500048,17.11601639,
1.514166594,17.73206139,
1.515833378,17.22006035,
1.517500043,17.1301899,
1.519166708,17.5892334,
1.520833373,17.30462837,
1.522499919,17.12018394,
1.524166703,17.38908195,
1.525833368,17.5902462,
1.527500033,17.57619667,
1.529166698,17.04692841,
1.530833364,17.23189926,
1.532500029,17.60239601,
1.534166694,17.51243591,
1.535833359,17.37444878,
1.537500024,17.2258606,
1.539166689,17.47686005,
1.540833354,17.25414848,
1.542500019,17.50415993,
1.544166684,17.28491783,
1.545833349,17.42153931,
1.547500014,17.07903481,
1.549166799,17.29031181,
1.550833344,17.20803261,
1.55250001,17.5142746,
1.554166675,17.13516617,
1.55583334,17.59904289,
1.557500124,17.15156937,
1.55916667,17.43084908,
1.560833335,16.97953606,
1.5625,17.28169632,
1.564166665,17.36311531,
1.565833449,17.09588623,
1.567499995,17.59334755,
1.56916666,17.02700424,
1.570833325,17.09937477,
1.57249999,17.17905998,
1.574166775,16.80165291,
1.57583344,17.28793907,
1.577499986,17.31230927,
1.579166651,17.58188629,
1.580833316,17.24087143,
1.5825001,17.3274765,
1.584166765,17.02105331,
1.585833311,17.15703773,
1.587499976,16.99026299,
1.589166641,16.70626831,
1.590833426,17.04771233,
1.592500091,17.50280762,
1.594166636,17.06042099,
1.595833302,16.84752655,
1.597499967,16.86674881,
1.599166751,17.24667549,
1.600833416,17.15002441,
1.602500081,17.38454628,
1.604166627,16.78985977,
1.605833292,16.93406677,
1.607500076,17.32209778,
1.609166741,17.09416962,
1.610833406,17.21628571,
1.612499952,17.19636154,
1.614166617,17.40657997,
1.615833402,16.8274498,
1.617500067,17.36855698,
1.619166732,16.86395454,
1.620833278,16.68212318,
1.622499943,16.89319801,
1.624166727,16.61884499,
1.625833392,17.27565193,
1.627500057,16.80316353,
1.629166722,17.06703377,
1.630833268,17.03515053,
1.632500052,16.87403297,
1.634166718,16.81848335,
1.635833383,17.28705597,
1.637500048,17.07481384,
1.639166594,17.33337402,
1.640833378,17.25362587,
1.642500043,17.02878952,
1.644166708,17.09543037,
1.645833373,16.64097404,
1.647499919,17.44570541,
1.649166703,16.92017174,
1.650833368,16.86134338,
1.652500033,16.4325676,
1.654166698,16.97893333,
1.655833364,16.92298508,
1.657500029,17.22012711,
1.659166694,17.17980385,
1.660833359,16.70388603,
1.662500024,16.84221649,
1.664166689,16.64665985,
1.665833354,16.8498764,
1.667500019,16.9633503,
1.669166684,16.48897171,
1.670833349,17.06642342,
1.672500014,16.42173576,
1.674166799,17.23093414,
1.675833344,16.97085953,
1.67750001,16.97422218,
1.679166675,16.88237762,
1.68083334,16.88464355,
1.682500124,16.40410805,
1.68416667,16.81183815,
1.685833335,16.82050705,
1.6875,17.09678459,
1.689166665,16.79896355,
1.690833449,16.82735252,
1.692499995,16.87697983,
1.69416666,16.77321434,
1.695833325,16.68251991,
1.69749999,17.08374405,
1.699166775,16.83519936,
1.70083344,16.71568489,
1.702499986,17.00596237,
1.704166651,16.86388588,
1.705833316,16.88695908,
1.7075001,17.32851219,
1.709166765,17.17917824,
1.710833311,16.82286644,
1.712499976,16.89395714,
1.714166641,16.7480526,
1.715833426,16.91803551,
1.717500091,16.97768402,
1.719166636,16.60236931,
1.720833302,16.82379913,
1.722499967,17.20872879,
1.724166751,16.49491882,
1.725833416,16.84422874,
1.727500081,17.19167519,
1.729166627,17.01220512,
1.730833292,16.53498077,
1.732500076,16.69182205,
1.734166741,17.0901413,
1.735833406,17.01786232,
1.737499952,16.33326149,
1.739166617,17.15459061,
1.740833402,16.70912552,
1.742500067,16.66168213,
1.744166732,16.7700901,
1.745833278,16.42981911,
1.747499943,17.00532532,
1.749166727,16.7760849,
1.750833392,16.61793137,
1.752500057,16.55067635,
1.754166722,17.08696747,
1.755833268,16.65149498,
1.757500052,17.00288582,
1.759166718,16.89532852,
1.760833383,16.6482811,
1.762500048,16.78701401,
1.764166594,16.81726646,
1.765833378,16.5126152,
1.767500043,16.78393555,
1.769166708,17.02521133,
1.770833373,16.88254738,
1.772499919,16.73729515,
1.774166703,16.94061279,
1.775833368,16.74731255,
1.777500033,16.97709084,
1.779166698,16.19956017,
1.780833364,16.58172607,
1.782500029,16.53111649,
1.784166694,16.77780914,
1.785833359,16.6675663,
1.787500024,16.66222954,
1.789166689,16.78811646,
1.790833354,16.49783897,
1.792500019,16.74155045,
1.794166684,16.87215233,
1.795833349,16.54761314,
1.797500014,16.86609268,
1.799166799,16.74092484,
1.800833344,16.63077164,
1.80250001,17.01572418,
1.804166675,16.51486778,
1.80583334,16.61601639,
1.807500124,16.44680405,
1.80916667,16.70495033,
1.810833335,16.48082161,
1.8125,16.2788353,
1.814166665,16.60256767,
1.815833449,16.47620964,
1.817499995,16.99784088,
1.81916666,16.76463318,
1.820833325,16.88788033,
1.82249999,16.80535126,
1.824166775,16.64959717,
1.82583344,16.77842331,
1.827499986,16.70648766,
1.829166651,16.40498924,
1.830833316,16.55452728,
1.8325001,16.28880501,
1.834166765,16.88321686,
1.835833311,16.86117172,
1.837499976,16.88101959,
1.839166641,16.56529808,
1.840833426,16.69195747,
1.842500091,16.37988472,
1.844166636,16.92632294,
1.845833302,16.56888199,
1.847499967,16.53458405,
1.849166751,16.79433441,
1.850833416,16.34664345,
1.852500081,16.41852379,
1.854166627,16.57743645,
1.855833292,16.59472084,
1.857500076,16.84694099,
1.859166741,16.79430962,
1.860833406,16.61824417,
1.862499952,16.67725563,
1.864166617,16.75029945,
1.865833402,16.71993256,
1.867500067,16.54162788,
1.869166732,16.81921005,
1.870833278,16.51715851,
1.872499943,16.56169319,
1.874166727,16.71819496,
1.875833392,16.50877571,
1.877500057,16.42080116,
1.879166722,16.92853355,
1.880833268,16.53831863,
1.882500052,16.26901817,
1.884166718,16.25651932,
1.885833383,16.78468704,
1.887500048,16.46543503,
1.889166594,16.5538578,
1.890833378,16.52306175,
1.892500043,16.4462471,
1.894166708,16.62727356,
1.895833373,16.36218262,
1.897499919,16.29652596,
1.899166703,16.49466324,
1.900833368,16.74628258,
1.902500033,16.86871147,
1.904166698,16.49577141,
1.905833364,16.01247978,
1.907500029,16.48797226,
1.909166694,16.56048775,
1.910833359,16.8514576,
1.912500024,16.40179443,
1.914166689,16.49090576,
1.915833354,16.2624836,
1.917500019,16.53176308,
1.919166684,16.63871002,
1.920833349,16.18469238,
1.922500014,16.7922802,
1.924166799,16.35038376,
1.925833344,16.3839035,
1.92750001,16.06560707,
1.929166675,16.55256653,
1.93083334,16.34544373,
1.932500124,15.99724197,
1.93416667,16.52737999,
1.935833335,16.28512764,
1.9375,16.73872948,
1.939166665,16.43213272,
1.940833449,16.35046005,
1.942499995,16.54266548,
1.94416666,16.81672478,
1.945833325,16.70063019,
1.94749999,16.5381546,
1.949166775,16.51473236,
1.95083344,16.48193932,
1.952499986,16.31012917,
1.954166651,16.56628227,
1.955833316,16.69540405,
1.9575001,16.71481323,
1.959166765,16.42835236,
1.960833311,16.29442024,
1.962499976,16.32577324,
1.964166641,16.18671799,
1.965833426,16.22348976,
1.967500091,16.33786583,
1.969166636,16.39850807,
1.970833302,16.20164108,
1.972499967,16.33335304,
1.974166751,16.46640778,
1.975833416,16.58603096,
1.977500081,16.11049843,
1.979166627,16.47535133,
1.980833292,16.53427124,
1.982500076,16.18042183,
1.984166741,16.12597084,
1.985833406,16.06729889,
1.987499952,16.41726303,
1.989166617,16.27693939,
1.990833402,17.00633621,
1.992500067,16.21306801,
1.994166732,16.33047485,
1.995833278,16.44246101,
1.997499943,16.14047623,
1.999166727,16.52157402,
2.000833273,16.43593979,
2.002500057,16.05413437,
2.004166603,16.39978027,
2.005833387,16.40344429,
2.007500172,15.85113621,
2.009166718,16.08749008,
2.010833263,16.29390335,
2.012500048,16.5459404,
2.014166594,16.34451294,
2.015833378,16.3654747,
2.017500162,15.963027,
2.019166708,16.40881348,
2.020833254,16.1172905,
2.022500038,16.02912521,
2.024166822,16.4774437,
2.025833368,16.48472023,
2.027499914,15.83912182,
2.029166698,16.14515877,
2.030833244,16.34165382,
2.032500029,16.32687187,
2.034166813,16.37427521,
2.035833359,16.40874481,
2.037499905,16.23477936,
2.039166689,16.43837166,
2.040833473,16.46075821,
2.042500019,16.08206558,
2.044166803,16.28713226,
2.045833349,16.35676193,
2.047499895,16.15244293,
2.049166679,16.50921059,
2.050833464,16.50863457,
2.05250001,16.51727104,
2.054166555,16.14053917,
2.05583334,15.95951271,
2.057500124,16.38692665,
2.05916667,16.31723785,
2.060833454,16.11855507,
2.0625,16.06776619,
2.064166546,16.30163574,
2.06583333,16.13187027,
2.067500114,16.45556831,
2.06916666,16.11791039,
2.070833445,16.11681366,
2.07249999,15.95433426,
2.074166775,16.29384232,
2.075833321,15.8809948,
2.077500105,16.04462242,
2.079166651,16.05942726,
2.080833197,16.1239357,
2.082499981,16.45114517,
2.084166765,16.35028839,
2.085833311,15.76190472,
2.087500095,16.12174988,
2.089166641,16.61931229,
2.090833426,16.21489143,
2.092499971,16.63176727,
2.094166756,16.10334396,
2.095833302,16.02339935,
2.097500086,16.57723045,
2.099166632,15.91141129,
2.100833416,16.37475014,
2.102499962,16.03678894,
2.104166746,15.87788391,
2.105833292,16.5277462,
2.107500076,16.35003471,
2.109166622,16.19737625,
2.110833406,16.04297066,
2.112499952,16.13337898,
2.114166737,16.16079903,
2.115833521,16.44194221,
2.117500067,16.18076515,
2.119166613,16.43830681,
2.120833397,16.16311455,
2.122499943,15.96904373,
2.124166727,16.0412178,
2.125833273,16.05179977,
2.127500057,16.15868759,
2.129166603,15.91176319,
2.130833387,16.31339836,
2.132500172,15.86945534,
2.134166718,16.35535812,
2.135833502,16.09376907,
2.137500048,16.09049034,
2.139166832,15.84733105,
2.140833378,16.12136078,
2.142500162,16.18748665,
2.144166708,16.44635773,
2.145833254,16.2437439,
2.147500038,16.10608673,
2.149166584,16.37063026,
2.150833368,16.13036537,
2.152500153,16.10144806,
2.154166698,16.09877205,
2.155833483,16.33338928,
2.157500029,16.13915634,
2.159166813,15.90128994,
2.160833597,16.13367653,
2.162499905,16.01552963,
2.164166689,16.03196907,
2.165833235,15.89923954,
2.167500019,16.00568962,
2.169166803,16.03865433,
2.170833349,16.26800919,
2.172500134,16.01036263,
2.174166679,16.34518814,
2.175833464,16.39024925,
2.177500248,16.20870781,
2.179166555,16.57465172,
2.18083334,15.8773737,
2.182499886,16.26554871,
2.18416667,16.42665863,
2.185833454,15.97430897,
2.1875,16.13162422,
2.189166784,15.78376293,
2.19083333,16.35798454,
2.192500114,16.33938599,
2.194166899,16.30865097,
2.195833445,16.07134438,
2.19749999,16.00042534,
2.199166536,16.0272541,
2.200833321,16.21773148,
2.202500105,15.93824291,
2.204166651,16.33845329,
2.205833435,15.74886417,
2.207499981,16.07089615,
2.209166765,16.19295502,
2.210833549,16.44618797,
2.212500095,16.14564323,
2.21416688,16.17867279,
2.215833187,16.32772255,
2.217499971,16.16505432,
2.219166756,16.15979195,
2.220833302,15.59448433,
2.222500086,16.05602264,
2.224166632,16.43191147,
2.225833416,16.27536774,
2.2275002,16.30376816,
2.229166746,15.94354916,
2.23083353,16.12135887,
2.232499838,15.89507771,
2.234166622,15.91653347,
2.235833406,15.91886425,
2.237499952,16.05825615,
2.239166737,15.90859699,
2.240833282,16.53882027,
2.242500067,15.6972971,
2.244166851,16.50849915,
2.245833397,15.98317719,
2.247500181,15.80276012,
2.249166727,16.24752045,
2.250833273,16.32013702,
2.252500057,15.90620708,
2.254166603,15.98509789,
2.255833387,16.04421616,
2.257499933,16.00222397,
2.259166718,16.13507843,
2.260833502,15.87245464,
2.262500048,15.88919926,
2.264166832,15.90057659,
2.265833378,16.55279732,
2.267500162,16.15824127,
2.269166708,16.15997124,
2.270833254,16.23724174,
2.272500038,16.23340416,
2.274166584,16.24463654,
2.275833368,15.94636059,
2.277500153,16.18393135,
2.279166698,16.41618538,
2.280833483,16.07246208,
2.282500029,16.24181747,
2.284166813,16.04495621,
2.285833597,15.82561398,
2.287499905,15.64751339,
2.289166689,16.13102913,
2.290833235,15.7500391,
2.292500019,16.08241653,
2.294166803,16.24300003,
2.295833349,15.96549892,
2.297500134,16.11125755,
2.299166679,16.32854652,
2.300833464,15.99617863,
2.302500248,15.84891987,
2.304166555,16.1940918,
2.30583334,16.06342125,
2.307499886,16.05501747,
2.30916667,16.29666519,
2.310833454,16.35177612,
2.3125,15.77795887,
2.314166784,16.04416275,
2.31583333,15.55707359,
2.317500114,16.20089149,
2.319166899,15.79821301,
2.320833445,16.00431824,
2.32249999,16.04671288,
2.324166536,16.44160843,
2.325833321,16.13235855,
2.327500105,15.99464798,
2.329166651,16.32176208,
2.330833435,16.05709648,
2.332499981,16.39256287,
2.334166765,16.03756714,
2.335833549,16.11249924,
2.337500095,15.97684765,
2.33916688,16.23685074,
2.340833187,15.91925716,
2.342499971,16.12874222,
2.344166756,16.10211563,
2.345833302,16.02493095,
2.347500086,15.992939,
2.349166632,16.075634,
2.350833416,15.9274044,
2.3525002,15.90491295,
2.354166746,16.2087822,
2.35583353,15.93224525,
2.357499838,15.80422401,
2.359166622,15.99796486,
2.360833406,15.97157478,
2.362499952,16.43948936,
2.364166737,16.01944923,
2.365833282,16.16148376,
2.367500067,16.10437012,
2.369166851,16.15934944,
2.370833397,15.93488503,
2.372500181,15.74907112,
2.374166727,15.95406437,
2.375833273,16.17629623,
2.377500057,15.91910458,
2.379166603,15.84310055,
2.380833387,16.28805161,
2.382499933,16.16210175,
2.384166718,15.83858395,
2.385833502,15.82066345,
2.387500048,15.69933033,
2.389166832,15.77446079,
2.390833378,16.28354263,
2.392500162,16.14598274,
2.394166708,16.1373558,
2.395833254,16.03300858,
2.397500038,16.12226105,
2.399166584,15.85386181,
2.400833368,16.09084892,
2.402500153,16.01766014,
2.404166698,16.16446114,
2.405833483,16.09164238,
2.407500029,15.94707012,
2.409166813,16.39794731,
2.410833597,16.31176186,
2.412499905,15.97050953,
2.414166689,15.93829536,
2.415833235,15.98664951,
2.417500019,15.85501957,
2.419166803,16.31158447,
2.420833349,15.76371098,
2.422500134,15.87405014,
2.424166679,16.33957863,
2.425833464,16.15643692,
2.427500248,16.07665443,
2.429166555,15.7492218,
2.43083334,16.20224762,
2.432499886,16.18731308,
2.43416667,16.07641411,
2.435833454,15.8005619,
2.4375,15.98951435,
2.439166784,16.2171154,
2.44083333,15.58857727,
2.442500114,16.31613541,
2.444166899,16.10277176,
2.445833445,15.74535465,
2.44749999,16.12979507,
2.449166536,15.82269192,
2.450833321,16.02215004,
2.452500105,16.19363976,
2.454166651,16.52809143,
2.455833435,15.91702938,
2.457499981,15.92652702,
2.459166765,15.75438309,
2.460833549,16.4384861,
2.462500095,16.32296562,
2.46416688,15.83869362,
2.465833187,15.78045273,
2.467499971,15.87066841,
2.469166756,16.0055294,
2.470833302,15.71283722,
2.472500086,15.71311092,
2.474166632,15.92962074,
2.475833416,15.9387722,
2.4775002,15.63497066,
2.479166746,16.38896942,
2.48083353,16.32007217,
2.482499838,15.7603941,
2.484166622,16.04451942,
2.485833406,15.85513306,
2.487499952,16.09848976,
2.489166737,15.83898449,
2.490833282,15.9832592,
2.492500067,15.72430134,
2.494166851,15.98992538,
2.495833397,15.64940643,
2.497500181,15.87282658,
2.499166727,15.94892502,
2.500833273,15.93012524,
2.502500057,16.24396896,
2.504166603,15.95570564,
2.505833387,15.68533993,
2.507499933,16.41166687,
2.509166718,15.96492672,
2.510833502,16.13085365,
2.512500048,15.98307133,
2.514166832,16.19073296,
2.515833378,15.85651779,
2.517500162,16.0565567,
2.519166708,16.05163193,
2.520833254,16.3422451,
2.522500038,16.19068527,
2.524166584,16.28174591,
2.525833368,16.08251953,
2.527500153,15.70502472,
2.529166698,15.89736938,
2.530833483,16.2953949,
2.532500029,15.75751019,
2.534166813,15.80288982,
2.535833597,16.06204987,
2.537499905,15.77243614,
2.539166689,15.81006527,
2.540833235,16.06678772,
2.542500019,15.84747791,
2.544166803,15.88679886,
2.545833349,16.00799561,
2.547500134,15.98616123,
2.549166679,16.02602005,
2.550833464,16.17110062,
2.552500248,16.0063839,
2.554166555,16.41563034,
2.55583334,16.03224182,
2.557499886,15.64121246,
2.55916667,16.00577354,
2.560833454,15.86645126,
2.5625,15.72296619,
2.564166784,15.8615799,
2.56583333,16.07242966,
2.567500114,15.92990208,
2.569166899,15.72577095,
2.570833445,15.94889736,
2.57249999,16.17289162,
2.574166536,16.03414345,
2.575833321,15.75252438,
2.577500105,15.78557682,
2.579166651,16.15731621,
2.580833435,16.07678413,
2.582499981,16.14108086,
2.584166765,15.43251896,
2.585833549,16.04534149,
2.587500095,15.73104954,
2.58916688,15.99242306,
2.590833187,15.83201218,
2.592499971,15.57789516,
2.594166756,15.96017933,
2.595833302,15.83292007,
2.597500086,15.65143681,
2.599166632,16.0881176,
2.600833416,15.85284615,
2.6025002,15.6849699,
2.604166746,15.41283035,
2.60583353,16.032444,
2.607499838,15.91314411,
2.609166622,15.8220253,
2.610833406,15.660923,
2.612499952,16.2479248,
2.614166737,15.91823292,
2.615833282,15.97968864,
2.617500067,15.71328354,
2.619166851,15.62182808,
2.620833397,15.80432796,
2.622500181,15.51680756,
2.624166727,15.68793106,
2.625833273,16.17568588,
2.627500057,15.94527626,
2.629166603,15.78327084,
2.630833387,16.05943871,
2.632499933,15.6704073,
2.634166718,15.53139496,
2.635833502,16.17734528,
2.637500048,16.11707687,
2.639166832,15.45595932,
2.640833378,15.92258739,
2.642500162,16.03085518,
2.644166708,15.74575329,
2.645833254,15.69979095,
2.647500038,15.58288765,
2.649166584,15.9627533,
2.650833368,15.82552147,
2.652500153,15.74952507,
2.654166698,16.00204659,
2.655833483,15.73016262,
2.657500029,16.00306511,
2.659166813,16.0144577,
2.660833597,15.9497261,
2.662499905,16.09385872,
2.664166689,15.60987854,
2.665833235,16.03680611,
2.667500019,15.85993576,
2.669166803,15.76739216,
2.670833349,15.80828285,
2.672500134,15.77800369,
2.674166679,15.57142448,
2.675833464,16.12413025,
2.677500248,15.89105988,
2.679166555,15.68067646,
2.68083334,15.77583313,
2.682499886,16.11011124,
2.68416667,15.74031448,
2.685833454,15.95994473,
2.6875,15.76521397,
2.689166784,15.92456532,
2.69083333,15.66246319,
2.692500114,16.07021523,
2.694166899,16.05939674,
2.695833445,15.82976437,
2.69749999,15.72485256,
2.699166536,15.71553612,
2.700833321,15.37614441,
2.702500105,16.00943565,
2.704166651,15.60468864,
2.705833435,15.49324322,
2.707499981,15.91991043,
2.709166765,15.57212543,
2.710833549,15.8909111,
2.712500095,15.68180466,
2.71416688,15.54319859,
2.715833187,15.63156986,
2.717499971,15.75611496,
2.719166756,15.45374107,
2.720833302,15.99699593,
2.722500086,16.0019455,
2.724166632,15.57973289,
2.725833416,16.05264091,
2.7275002,15.64840984,
2.729166746,15.58123112,
2.73083353,16.14065933,
2.732499838,15.95554352,
2.734166622,15.78570175,
2.735833406,15.95782471,
2.737499952,15.81196117,
2.739166737,15.96363449,
2.740833282,15.99692917,
2.742500067,15.66807365,
2.744166851,15.76013279,
2.745833397,15.88074112,
2.747500181,15.91889763,
2.749166727,15.86097622,
2.750833273,16.01418304,
2.752500057,15.69214821,
2.754166603,15.93767452,
2.755833387,15.58020878,
2.757499933,16.01140404,
2.759166718,15.94623756,
2.760833502,15.75677681,
2.762500048,15.93119621,
2.764166832,15.95729065,
2.765833378,15.61292458,
2.767500162,15.59939194,
2.769166708,15.61538601,
2.770833254,15.91338921,
2.772500038,15.80316353,
2.774166584,15.36325264,
2.775833368,15.29654884,
2.777500153,15.52212906,
2.779166698,15.59203815,
2.780833483,16.07788277,
2.782500029,15.78709126,
2.784166813,16.01638222,
2.785833597,16.08490372,
2.787499905,15.91527462,
2.789166689,15.88699436,
2.790833235,15.52934456,
2.792500019,15.72405148,
2.794166803,16.00205612,
2.795833349,15.82317448,
2.797500134,15.85504627,
2.799166679,16.3216877,
2.800833464,15.73436928,
2.802500248,15.62230682,
2.804166555,15.79672813,
2.80583334,15.61444473,
2.807499886,15.6618042,
2.80916667,15.53351879,
2.810833454,15.61279297,
2.8125,15.68673897,
2.814166784,16.07182312,
2.81583333,15.8512373,
2.817500114,15.79878139,
2.819166899,15.68597221,
2.820833445,15.77214146,
2.82249999,15.85898399,
2.824166536,15.69586849,
2.825833321,15.73533344,
2.827500105,15.60679436,
2.829166651,15.8371439,
2.830833435,15.61298847,
2.832499981,15.82106781,
2.834166765,15.97152805,
2.835833549,15.74378872,
2.837500095,15.60712051,
2.83916688,15.96617317,
2.840833187,16.02685547,
2.842499971,15.8586483,
2.844166756,15.76695061,
2.845833302,15.73650932,
2.847500086,15.83844566,
2.849166632,15.89009762,
2.850833416,15.4401207,
2.8525002,16.07814598,
2.854166746,15.57739067,
2.85583353,15.80021858,
2.857499838,15.98048973,
2.859166622,16.14513779,
2.860833406,15.75846386,
2.862499952,15.58523846,
2.864166737,15.74915123,
2.865833282,15.91960716,
2.867500067,16.02822876,
2.869166851,15.89035225,
2.870833397,16.10415459,
2.872500181,15.69446564,
2.874166727,15.89852905,
2.875833273,16.01064301,
2.877500057,16.17481232,
2.879166603,15.93103027,
2.880833387,15.36979198,
2.882499933,15.63023376,
2.884166718,15.59800148,
2.885833502,15.80363178,
2.887500048,15.53597641,
2.889166832,15.83747959,
2.890833378,16.08897209,
2.892500162,15.68606663,
2.894166708,15.85296726,
2.895833254,15.90813541,
2.897500038,16.02385139,
2.899166584,15.68345547,
2.900833368,16.08640671,
2.902500153,16.04619026,
2.904166698,15.63221931,
2.905833483,15.85623074,
2.907500029,15.70799541,
2.909166813,15.88424683,
2.910833597,15.79570198,
2.912499905,15.90001011,
2.914166689,16.20224571,
2.915833235,15.83176804,
2.917500019,15.40633488,
2.919166803,15.80367279,
2.920833349,15.60878468,
2.922500134,15.61456871,
2.924166679,16.00299072,
2.925833464,15.6964922,
2.927500248,15.83326435,
2.929166555,15.62285042,
2.93083334,15.36430931,
2.932499886,16.15564919,
2.93416667,15.76116467,
2.935833454,15.63479042,
2.9375,15.65930462,
2.939166784,15.86648846,
2.94083333,15.8409977,
2.942500114,15.88453197,
2.944166899,15.97405052,
2.945833445,15.88529491,
2.94749999,15.8228035,
2.949166536,15.70266533,
2.950833321,16.06147385,
2.952500105,15.92674065,
2.954166651,15.77958107,
2.955833435,15.57326508,
2.957499981,15.97839069,
2.959166765,15.831213,
2.960833549,15.76177979,
2.962500095,16.08030891,
2.96416688,15.68453026,
2.965833187,15.86137009,
2.967499971,16.1611557,
2.969166756,15.98866653,
2.970833302,15.2987318,
2.972500086,15.60980129,
2.974166632,15.73248768,
2.975833416,15.59354877,
2.9775002,15.47708893,
2.979166746,15.8610363,
2.98083353,15.95978069,
2.982499838,15.9206295,
2.984166622,15.48126793,
2.985833406,15.79439259,
2.987499952,15.35028839,
2.989166737,15.65643215,
2.990833282,15.81238365,
2.992500067,15.93887043,
2.994166851,15.7697401,
2.995833397,15.20070648,
2.997500181,15.75248146,
2.999166727,15.48615837,
3.000833273,15.75190353,
3.002500057,15.46997261,
3.004166603,15.9195118,
3.005833387,16.00195313,
3.007499933,15.47282028,
3.009166718,15.77105141,
3.010833502,15.69580078,
3.012500048,15.47231293,
3.014166832,15.77333546,
3.015833378,15.77521324,
3.017500162,16.03375053,
3.019166708,15.43455315,
3.020833254,16.0144043,
3.022500038,16.01125717,
3.024166584,15.64927578,
3.025833368,15.84795475,
3.027500153,15.98994255,
3.029166698,15.75325203,
3.030833483,15.68857765,
3.032500029,15.75475216,
3.034166813,15.47680283,
3.035833597,15.88094997,
3.037499905,15.62969208,
3.039166689,15.76709938,
3.040833235,16.02855301,
3.042500019,15.86544704,
3.044166803,15.93921661,
3.045833349,15.71733665,
3.047500134,15.59761333,
3.049166679,15.72414494,
3.050833464,16.05544281,
3.052500248,15.6578083,
3.054166555,15.49772072,
3.05583334,15.57465363,
3.057499886,15.54526043,
3.05916667,16.12978935,
3.060833454,15.46413231,
3.0625,15.74228001,
3.064166784,15.5773468,
3.06583333,15.54318142,
3.067500114,15.75778961,
3.069166899,15.61333466,
3.070833445,15.77614021,
3.07249999,15.73099041,
3.074166536,15.62426472,
3.075833321,15.6266613,
3.077500105,15.67465401,
3.079166651,15.85185337,
3.080833435,15.99939156,
3.082499981,15.69831753,
3.084166765,15.66664696,
3.085833549,16.30156517,
3.087500095,15.58382797,
3.08916688,15.57595444,
3.090833187,15.54090595,
3.092499971,15.56535912,
3.094166756,15.7375803,
3.095833302,15.69038296,
3.097500086,15.57634258,
3.099166632,15.76084614,
3.100833416,15.5521822,
3.1025002,15.95785618,
3.104166746,15.6824398,
3.10583353,15.64869308,
3.107499838,15.72381306,
3.109166622,15.96342945,
3.110833406,15.40045357,
3.112499952,15.56595898,
3.114166737,15.88043785,
3.115833282,15.65360451,
3.117500067,15.91491699,
3.119166851,16.02770996,
3.120833397,15.31989574,
3.122500181,15.61826611,
3.124166727,15.95445728,
3.125833273,15.76474285,
3.127500057,16.01507378,
3.129166603,15.53602219,
3.130833387,15.91869831,
3.132499933,15.70522213,
3.134166718,15.53988838,
3.135833502,15.61510372,
3.137500048,15.71823502,
3.139166832,15.9493084,
3.140833378,16.11399841,
3.142500162,15.70892143,
3.144166708,15.50733089,
3.145833254,15.81076527,
3.147500038,15.81314182,
3.149166584,15.74254227,
3.150833368,15.58722878,
3.152500153,15.95544052,
3.154166698,15.68608952,
3.155833483,15.60330391,
3.157500029,15.83391762,
3.159166813,15.55959034,
3.160833597,15.54997826,
3.162499905,15.75088501,
3.164166689,15.99234676,
3.165833235,15.56253529,
3.167500019,15.55279446,
3.169166803,16.12086487,
3.170833349,15.76683331,
3.172500134,15.62308311,
3.174166679,15.68039131,
3.175833464,15.70627689,
3.177500248,15.8139658,
3.179166555,15.79155254,
3.18083334,15.4363842,
3.182499886,15.65915203,
3.18416667,15.94405651,
3.185833454,15.75309372,
3.1875,15.44487667,
3.189166784,15.60245037,
3.19083333,15.64303398,
3.192500114,15.73435783,
3.194166899,15.63173866,
3.195833445,15.4819212,
3.19749999,15.83386993,
3.199166536,15.95508289,
3.200833321,15.58507156,
3.202500105,15.5687294,
3.204166651,15.38003731,
3.205833435,15.7235117,
3.207499981,16.11730194,
3.209166765,15.65705395,
3.210833549,15.82643032,
3.212500095,15.45859718,
3.21416688,15.44629478,
3.215833187,15.49598789,
3.217499971,15.64047718,
3.219166756,15.62537098,
3.220833302,15.70816326,
3.222500086,15.74918842,
3.224166632,15.87716866,
3.225833416,15.56910133,
3.2275002,15.7956686,
3.229166746,16.2342453,
3.23083353,15.87301636,
3.232499838,16.10764122,
3.234166622,15.72104931,
3.235833406,15.85261917,
3.237499952,15.38909435,
3.239166737,15.40502167,
3.240833282,15.49986744,
3.242500067,15.68572235,
3.244166851,16.23747253,
3.245833397,15.45717239,
3.247500181,16.00397873,
3.249166727,15.94067574,
3.250833273,15.33824253,
3.252500057,15.68369579,
3.254166603,15.7885313,
3.255833387,15.53856564,
3.257499933,15.59388733,
3.259166718,15.55478287,
3.260833502,15.706563,
3.262500048,15.64261532,
3.264166832,15.67280674,
3.265833378,15.31757164,
3.267500162,15.70292377,
3.269166708,15.77220631,
3.270833254,15.34729195,
3.272500038,15.52213764,
3.274166584,15.76705265,
3.275833368,15.64354801,
3.277500153,15.67578316,
3.279166698,15.83050346,
3.280833483,15.72394753,
3.282500029,15.44920826,
3.284166813,15.87542725,
3.285833597,15.44369602,
3.287499905,15.47020626,
3.289166689,16.10505867,
3.290833235,15.38559341,
3.292500019,15.47430134,
3.294166803,15.63457394,
3.295833349,15.84799957,
3.297500134,15.35281277,
3.299166679,15.09124279,
3.300833464,15.71732426,
3.302500248,15.5187664,
3.304166555,15.82599068,
3.30583334,15.83542442,
3.307499886,15.76989555,
3.30916667,15.52107716,
3.310833454,15.50126266,
3.3125,15.67967033,
3.314166784,15.44673538,
3.31583333,15.9563961,
3.317500114,15.74542141,
3.319166899,15.47824001,
3.320833445,15.76682568,
3.32249999,15.5953331,
3.324166536,15.84623241,
3.325833321,15.2876749,
3.327500105,16.17225266,
3.329166651,15.7502594,
3.330833435,15.69393826,
3.332499981,15.58610058,
3.334166765,15.72818279,
3.335833549,15.63226414,
3.337500095,15.61123276,
3.33916688,15.74484062,
3.340833187,15.36262989,
3.342499971,15.60180473,
3.344166756,15.72264767,
3.345833302,15.67770958,
3.347500086,15.70012093,
3.349166632,15.80865669,
3.350833416,15.76936626,
3.3525002,15.69587326,
3.354166746,15.29725456,
3.35583353,15.76867104,
3.357499838,15.6628437,
3.359166622,15.44790077,
3.360833406,15.71367264,
3.362499952,15.64724159,
3.364166737,15.54191303,
3.365833282,15.4275074,
3.367500067,15.52707005,
3.369166851,15.67533398,
3.370833397,15.48786163,
3.372500181,15.37410545,
3.374166727,15.75620461,
3.375833273,15.57630539,
3.377500057,15.88472557,
3.379166603,15.49687386,
3.380833387,15.24484634,
3.382499933,15.77051163,
3.384166718,15.88322067,
3.385833502,15.51894283,
3.387500048,15.44616413,
3.389166832,16.01149368,
3.390833378,15.67366695,
3.392500162,15.36366177,
3.394166708,15.68953133,
3.395833254,15.64233398,
3.397500038,15.89014339,
3.399166584,15.62177372,
3.400833368,15.57566738,
3.402500153,15.7079792,
3.404166698,15.79505348,
3.405833483,15.71803188,
3.407500029,15.80679607,
3.409166813,15.93730259,
3.410833597,15.47717381,
3.412499905,15.89799309,
3.414166689,15.8740263,
3.415833235,15.95855904,
3.417500019,15.67748547,
3.419166803,15.86946869,
3.420833349,15.45998001,
3.422500134,15.59651375,
3.424166679,15.4943819,
3.425833464,15.21169949,
3.427500248,15.22165298,
3.429166555,15.65831757,
3.43083334,15.62775326,
3.432499886,15.46595383,
3.43416667,15.80748558,
3.435833454,15.80203533,
3.4375,15.62945175,
3.439166784,15.43485641,
3.44083333,15.47314358,
3.442500114,15.39412403,
3.444166899,15.29627705,
3.445833445,15.59614658,
3.44749999,15.76698589,
3.449166536,15.85014343,
3.450833321,15.45450878,
3.452500105,15.59979057,
3.454166651,15.34842587,
3.455833435,16.0459156,
3.457499981,15.18254852,
3.459166765,15.56351566,
3.460833549,15.45963097,
3.462500095,15.6317749,
3.46416688,15.7350111,
3.465833187,15.6548748,
3.467499971,15.95530128,
3.469166756,15.66676998,
3.470833302,15.2970314,
3.472500086,15.49402332,
3.474166632,15.31097603,
3.475833416,15.42090607,
3.4775002,15.49710751,
3.479166746,15.60333061,
3.48083353,15.47223568,
3.482499838,15.80336666,
3.484166622,16.02855301,
3.485833406,15.8630743,
3.487499952,15.34716129,
3.489166737,15.70901871,
3.490833282,15.58548737,
3.492500067,16.05203629,
3.494166851,15.69922256,
3.495833397,15.28491211,
3.497500181,15.54385853,
3.499166727,15.44760799,
3.500833273,15.67863846,
3.502500057,15.65776348,
3.504166603,15.4281168,
3.505833387,15.1631012,
3.507499933,15.66269207,
3.509166718,15.49018669,
3.510833502,15.18286037,
3.512500048,15.53252697,
3.514166832,15.87887096,
3.515833378,15.38776684,
3.517500162,15.78001118,
3.519166708,15.8107872,
3.520833254,15.3514185,
3.522500038,15.62986374,
3.524166584,15.9631815,
3.525833368,15.60276127,
3.527500153,15.5501194,
3.529166698,15.67620373,
3.530833483,15.76877975,
3.532500029,15.46930981,
3.534166813,15.55473232,
3.535833597,15.40054893,
3.537499905,15.7874155,
3.539166689,15.61383152,
3.540833235,15.51910686,
3.542500019,15.50888157,
3.544166803,15.6052866,
3.545833349,15.53541851,
3.547500134,15.53767109,
3.549166679,15.62827969,
3.550833464,15.71108627,
3.552500248,15.3681736,
3.554166555,15.52852249,
3.55583334,15.58262348,
3.557499886,15.5252161,
3.55916667,15.28962803,
3.560833454,15.81731796,
3.5625,15.56051636,
3.564166784,15.75379276,
3.56583333,15.50419521,
3.567500114,15.46522045,
3.569166899,15.78176975,
3.570833445,15.42000103,
3.57249999,15.79702663,
3.574166536,15.59393501,
3.575833321,15.54633331,
3.577500105,15.75549889,
3.579166651,15.4590044,
3.580833435,15.73467445,
3.582499981,15.6010704,
3.584166765,15.67032528,
3.585833549,15.44099617,
3.587500095,15.81753254,
3.58916688,15.08054256,
3.590833187,15.47859764,
3.592499971,15.7131424,
3.594166756,15.56019688,
3.595833302,15.69442844,
3.597500086,15.58870506,
3.599166632,15.63010025,
3.600833416,15.52627754,
3.6025002,15.77505493,
3.604166746,15.77016544,
3.60583353,15.40962124,
3.607499838,15.62774181,
3.609166622,15.59341621,
3.610833406,15.52214527,
3.612499952,15.90653133,
3.614166737,15.80012798,
3.615833282,15.50297546,
3.617500067,15.7944355,
3.619166851,15.08646107,
3.620833397,15.21392345,
3.622500181,15.58148479,
3.624166727,15.62537479,
3.625833273,15.68540764,
3.627500057,15.13928318,
3.629166603,15.31627941,
3.630833387,15.38551998,
3.632499933,15.29807281,
3.634166718,15.44031525,
3.635833502,15.73120785,
3.637500048,15.37305355,
3.639166832,15.68260193,
3.640833378,15.6962347,
3.642500162,15.64887524,
3.644166708,15.7668066,
3.645833254,15.85498619,
3.647500038,15.32063198,
3.649166584,15.49246597,
3.650833368,15.54450703,
3.652500153,15.64448929,
3.654166698,15.7469492,
3.655833483,15.8610754,
3.657500029,15.61579323,
3.659166813,15.41003323,
3.660833597,15.66968822,
3.662499905,15.44260693,
3.664166689,15.39598846,
3.665833235,15.22290897,
3.667500019,15.70612907,
3.669166803,15.41767502,
3.670833349,15.58796215,
3.672500134,15.8192482,
3.674166679,15.68051434,
3.675833464,15.56043816,
3.677500248,15.64135075,
3.679166555,15.44503117,
3.68083334,15.78277397,
3.682499886,15.89686966,
3.68416667,16.03698158,
3.685833454,15.56664371,
3.6875,15.45492554,
3.689166784,15.62343025,
3.69083333,15.80935383,
3.692500114,15.6950798,
3.694166899,15.66278553,
3.695833445,15.72732258,
3.69749999,15.412817,
3.699166536,15.6111269,
3.700833321,15.89750481,
3.702500105,15.77167988,
3.704166651,15.61089611,
3.705833435,15.53100014,
3.707499981,15.45946121,
3.709166765,15.75774002,
3.710833549,15.76107883,
3.712500095,15.96574116,
3.71416688,15.6723671,
3.715833187,15.45599556,
3.717499971,15.08737087,
3.719166756,15.36617661,
3.720833302,15.62409306,
3.722500086,15.56855679,
3.724166632,15.75137138,
3.725833416,15.75856686,
3.7275002,15.52187634,
3.729166746,15.02019215,
3.73083353,15.80215645,
3.732499838,15.67741871,
3.734166622,15.78978634,
3.735833406,15.50229168,
3.737499952,15.85669231,
3.739166737,15.63096428,
3.740833282,15.69499969,
3.742500067,15.40256214,
3.744166851,15.64953518,
3.745833397,15.8696804,
3.747500181,15.61592102,
3.749166727,15.56229687,
3.750833273,15.62472248,
3.752500057,15.73727322,
3.754166603,15.59262753,
3.755833387,15.57077217,
3.757499933,15.22370338,
3.759166718,15.30127811,
3.760833502,15.73619652,
3.762500048,15.4430809,
3.764166832,15.73004341,
3.765833378,15.75767803,
3.767500162,15.59585094,
3.769166708,15.88457966,
3.770833254,15.94584846,
3.772500038,15.62260246,
3.774166584,15.06658745,
3.775833368,15.46298599,
3.777500153,15.58929253,
3.779166698,15.47412777,
3.780833483,15.66889858,
3.782500029,15.63985252,
3.784166813,15.73453426,
3.785833597,15.48951149,
3.787499905,16.05807304,
3.789166689,15.36450005,
3.790833235,15.67358303,
3.792500019,15.7572813,
3.794166803,15.59209728,
3.795833349,16.20885468,
3.797500134,15.51005363,
3.799166679,15.48324871,
3.800833464,15.4958992,
3.802500248,15.62230873,
3.804166555,15.64751911,
3.80583334,15.52721024,
3.807499886,15.52522945,
3.80916667,15.41845036,
3.810833454,15.5071497,
3.8125,15.67285156,
3.814166784,15.556036,
3.81583333,15.35281277,
3.817500114,15.60669708,
3.819166899,15.82253742,
3.820833445,15.45059204,
3.82249999,15.32120991,
3.824166536,15.53998375,
3.825833321,15.57087231,
3.827500105,15.57433701,
3.829166651,15.70064735,
3.830833435,15.53089333,
3.832499981,15.79594803,
3.834166765,15.58406448,
3.835833549,15.55666161,
3.837500095,15.30630207,
3.83916688,15.56878471,
3.840833187,15.82331562,
3.842499971,15.23404789,
3.844166756,15.58982372,
3.845833302,15.53841019,
3.847500086,15.4311142,
3.849166632,15.56607151,
3.850833416,15.60518074,
3.8525002,15.44886684,
3.854166746,15.67884159,
3.85583353,15.59755802,
3.857499838,15.58077908,
3.859166622,15.03354359,
3.860833406,15.67323303,
3.862499952,15.64097786,
3.864166737,15.45081997,
3.865833282,15.04712582,
3.867500067,15.28151512,
3.869166851,15.95376015,
3.870833397,15.8094635,
3.872500181,15.61893845,
3.874166727,15.81598473,
3.875833273,15.15525818,
3.877500057,15.5127039,
3.879166603,15.6782589,
3.880833387,16.03728867,
3.882499933,15.29762077,
3.884166718,15.72081089,
3.885833502,15.79151821,
3.887500048,15.55008221,
3.889166832,15.7256031,
3.890833378,15.94021511,
3.892500162,16.04498672,
3.894166708,15.37675381,
3.895833254,15.57278633,
3.897500038,15.58283615,
3.899166584,15.26753902,
3.900833368,16.04064941,
3.902500153,15.78901005,
3.904166698,15.24712086,
3.905833483,15.66844463,
3.907500029,15.40436459,
3.909166813,16.11465263,
3.910833597,15.45550919,
3.912499905,15.7243309,
3.914166689,15.65888119,
3.915833235,15.9492569,
3.917500019,15.83174229,
3.919166803,15.69430923,
3.920833349,15.42100334,
3.922500134,15.71025848,
3.924166679,15.43432713,
3.925833464,15.60330582,
3.927500248,15.49731445,
3.929166555,15.61965752,
3.93083334,16.10161972,
3.932499886,15.6306572,
3.93416667,15.86425877,
3.935833454,15.47944927,
3.9375,15.34691143,
3.939166784,15.69283199,
3.94083333,15.10449123,
3.942500114,15.543643,
3.944166899,15.37057209,
3.945833445,15.58411026,
3.94749999,15.27208233,
3.949166536,15.59440136,
3.950833321,15.61317062,
3.952500105,15.73507881,
3.954166651,15.60600758,
3.955833435,15.5736475,
3.957499981,15.65325069,
3.959166765,15.4050293,
3.960833549,15.9308815,
3.962500095,15.67571449,
3.96416688,16.08553505,
3.965833187,15.48056889,
3.967499971,15.7201643,
3.969166756,15.77231693,
3.970833302,15.44032097,
3.972500086,15.64025688,
3.974166632,15.79792786,
3.975833416,15.65825748,
3.9775002,15.50790501,
3.979166746,15.44774437,
3.98083353,15.66914272,
3.982499838,15.4298048,
3.984166622,15.42818928,
3.985833406,15.12500095,
3.987499952,15.36471939,
3.989166737,15.88259602,
3.990833282,15.58416653,
3.992500067,15.4553051,
3.994166851,15.6795063,
3.995833397,15.67233944,
3.997500181,15.55798435,
3.999166727,15.71507168,
4.000833511,15.45307827,
4.002500057,15.79158211,
4.004166603,15.75783062,
4.005833626,15.17877388,
4.007500172,15.56890488,
4.009166718,15.46091652,
4.010833263,15.25923061,
4.012499809,15.54606247,
4.014166832,15.37563992,
4.015833378,15.9183054,
4.017499924,15.61107731,
4.019166946,15.76148891,
4.020833492,15.55934238,
4.022500038,15.72497368,
4.024166584,15.83347988,
4.025833607,15.58370781,
4.027500153,15.52461529,
4.029166698,15.70689869,
4.030833244,15.44693184,
4.03249979,15.60382366,
4.034166813,15.55528259,
4.035833359,15.44157219,
4.037499905,15.67747116,
4.039166927,15.28972626,
4.040833473,15.32885456,
4.042500019,15.88288689,
4.044167042,15.37030315,
4.045833111,15.8476181,
4.047500134,15.3024931,
4.049166679,15.65134907,
4.050833225,15.8784256,
4.052500248,15.21996307,
4.054166794,15.58040047,
4.05583334,15.96063519,
4.057499886,15.42601871,
4.059166908,15.500453,
4.060833454,15.58973503,
4.0625,15.38461494,
4.064166546,15.43195343,
4.065833092,15.7508831,
4.067500114,14.79716206,
4.06916666,15.49817276,
4.070833206,15.43965244,
4.072500229,15.73223591,
4.074166775,15.62694454,
4.075833321,15.39729881,
4.077500343,15.18775177,
4.079166889,15.57144547,
4.080833435,15.76952076,
4.082499981,15.99822903,
4.084166527,15.49903393,
4.085833549,15.51612091,
4.087500095,15.27076817,
4.089166641,15.3106823,
4.090833187,15.68183136,
4.09250021,15.77989769,
4.094166756,15.73836231,
4.095833302,15.58758736,
4.097500324,15.4934864,
4.099166393,15.71620274,
4.100833416,15.38261414,
4.102499962,15.36608505,
4.104166508,15.59900665,
4.10583353,15.64088058,
4.107500076,15.58699512,
4.109166622,15.96442032,
4.110833645,15.6273098,
4.112500191,15.32781029,
4.114166737,15.62272072,
4.115833282,15.90263462,
4.117499828,15.59649181,
4.119166851,15.43680859,
4.120833397,15.59161186,
4.122499943,15.41160107,
4.124166489,15.34101009,
4.125833511,15.23343277,
4.127500057,15.78468132,
4.129166603,15.72651196,
4.130833626,15.65178299,
4.132500172,15.22164536,
4.134166718,15.69921875,
4.135833263,15.75818443,
4.137499809,15.52277851,
4.139166832,15.25702667,
4.140833378,15.35867405,
4.142499924,15.63919353,
4.144166946,15.52936745,
4.145833492,15.80007553,
4.147500038,15.15292645,
4.149166584,15.63389015,
4.150833607,15.77384377,
4.152500153,15.78385162,
4.154166698,15.57338333,
4.155833244,15.50065327,
4.15749979,15.87405586,
4.159166813,15.49091244,
4.160833359,15.17766953,
4.162499905,15.4461298,
4.164166927,15.508564,
4.165833473,15.37166214,
4.167500019,15.76285458,
4.169167042,15.1693058,
4.170833111,15.95675564,
4.172500134,15.70553493,
4.174166679,15.42192459,
4.175833225,15.34409809,
4.177500248,15.38853836,
4.179166794,15.35130596,
4.18083334,15.65318584,
4.182499886,15.50551796,
4.184166908,15.5850296,
4.185833454,15.37879181,
4.1875,15.64646912,
4.189166546,15.71948242,
4.190833092,15.76028347,
4.192500114,15.53877735,
4.19416666,15.26365757,
4.195833206,15.28553772,
4.197500229,15.42994404,
4.199166775,15.76718712,
4.200833321,15.90429401,
4.202500343,15.51332188,
4.204166889,15.62180233,
4.205833435,15.3780489,
4.207499981,15.67077827,
4.209166527,15.48779202,
4.210833549,15.63746452,
4.212500095,15.73191071,
4.214166641,15.34725761,
4.215833187,15.02438259,
4.21750021,15.21764565,
4.219166756,15.40325928,
4.220833302,15.64129257,
4.222500324,15.65577126,
4.224166393,15.31439972,
4.225833416,15.55839443,
4.227499962,15.581954,
4.229166508,15.56143856,
4.23083353,15.34861469,
4.232500076,15.48485088,
4.234166622,15.7183466,
4.235833645,15.6511631,
4.237500191,14.97663212,
4.239166737,15.53854752,
4.240833282,15.50680161,
4.242499828,15.50741959,
4.244166851,15.21945858,
4.245833397,15.53099823,
4.247499943,15.57312679,
4.249166489,15.41873264,
4.250833511,15.69131565,
4.252500057,15.19163036,
4.254166603,15.3957386,
4.255833626,15.44739819,
4.257500172,15.56791687,
4.259166718,15.54651165,
4.260833263,15.70489025,
4.262499809,15.51301289,
4.264166832,15.76401329,
4.265833378,15.53541088,
4.267500401,15.33108044,
4.26916647,15.52297306,
4.270833492,15.47965908,
4.272500038,15.56783104,
4.274167061,15.34262371,
4.275833607,15.33831406,
4.277499676,15.3463707,
4.279166698,15.74909496,
4.280833244,15.67777634,
4.282500267,15.48802757,
4.284166813,15.51191044,
4.285833359,15.86088562,
4.287499905,15.33749485,
4.289166927,15.10667324,
4.290833473,15.64285374,
4.292500496,15.58737564,
4.294166565,15.18302631,
4.295833111,15.49247074,
4.297500134,15.75325775,
4.299166679,15.79162693,
4.300833702,15.87670135,
4.302499771,15.6525631,
4.304166794,15.45567036,
4.30583334,15.38792229,
4.307500362,15.70720577,
4.309166908,15.53047276,
4.310833454,15.60920525,
4.3125,14.99694061,
4.314166546,15.59151936,
4.315833569,15.32147408,
4.317500114,15.65558815,
4.31916666,15.57986164,
4.320833206,15.69424534,
4.322500229,15.53053761,
4.324166775,15.65280151,
4.325833797,15.48624706,
4.327499866,15.69450092,
4.329166889,15.55006313,
4.330833435,15.43697166,
4.332499981,15.08366585,
4.334167004,15.93779755,
4.335833073,15.31037998,
4.337500095,15.8115387,
4.339166641,15.56227016,
4.340833664,15.65425873,
4.34250021,15.54603958,
4.344166756,15.49435806,
4.345833302,15.89252281,
4.347500324,15.18061066,
4.34916687,15.45201683,
4.350833416,15.20700645,
4.352499962,15.22718048,
4.354166508,15.39051437,
4.35583353,16.09380531,
4.357500076,15.5624485,
4.359167099,15.45678425,
4.360833168,15.61873055,
4.362500191,15.4086132,
4.364166737,15.51178169,
4.365833759,15.65830803,
4.367500305,15.54176807,
4.369166374,15.05314541,
4.370833397,15.48330688,
4.372499943,15.72429371,
4.374166965,15.69963074,
4.375833511,15.50323105,
4.377500057,15.37702465,
4.379166603,15.66915607,
4.380833626,15.40772629,
4.382500172,15.68507767,
4.384167194,15.46391773,
4.385833263,15.78428078,
4.387499809,15.84641266,
4.389166832,15.45612335,
4.390833378,15.60268784,
4.392500401,15.36401463,
4.39416647,15.15088844,
4.395833492,15.49215984,
4.397500038,15.73188972,
4.399167061,15.36430168,
4.400833607,15.59833717,
4.402499676,15.36355686,
4.404166698,15.54165459,
4.405833244,15.42801476,
4.407500267,15.57414627,
4.409166813,15.60954475,
4.410833359,15.5661068,
4.412499905,15.27997494,
4.414166927,15.6631546,
4.415833473,15.62116623,
4.417500496,15.06267071,
4.419166565,15.53374386,
4.420833111,15.15418053,
4.422500134,15.29185009,
4.424166679,15.45199299,
4.425833702,15.37363815,
4.427499771,15.5581789,
4.429166794,15.8180685,
4.43083334,15.78202248,
4.432500362,15.80440235,
4.434166908,15.68039513,
4.435833454,15.67986012,
4.4375,15.48150063,
4.439166546,15.40555191,
4.440833569,15.48355675,
4.442500114,15.45423317,
4.44416666,15.49704742,
4.445833206,15.40423012,
4.447500229,15.55851555,
4.449166775,15.82631302,
4.450833797,15.61680317,
4.452499866,15.33145428,
4.454166889,15.75774002,
4.455833435,15.63752079,
4.457499981,15.48812771,
4.459167004,15.4822607,
4.460833073,15.57839108,
4.462500095,15.44488811,
4.464166641,15.64073372,
4.465833664,15.72570992,
4.46750021,15.37705135,
4.469166756,15.12904549,
4.470833302,15.77669907,
4.472500324,15.33807087,
4.47416687,15.53752041,
4.475833416,15.39947891,
4.477499962,15.48820019,
4.479166508,15.48460293,
4.48083353,15.65590858,
4.482500076,15.36156559,
4.484167099,15.6006155,
4.485833168,15.65422821,
4.487500191,15.4217577,
4.489166737,15.61589718,
4.490833759,15.22946262,
4.492500305,15.57975769,
4.494166374,15.47498608,
4.495833397,15.69573212,
4.497499943,15.20823002,
4.499166965,15.44476795,
4.500833511,15.35169792,
4.502500057,15.51952076,
4.504166603,15.62180614,
4.505833626,15.52766037,
4.507500172,15.55983067,
4.509167194,15.98403931,
4.510833263,15.37081242,
4.512499809,15.36312866,
4.514166832,15.40185165,
4.515833378,15.63335991,
4.517500401,15.28730202,
4.51916647,15.55487633,
4.520833492,15.41178036,
4.522500038,15.49664307,
4.524167061,15.39711094,
4.525833607,15.29335117,
4.527499676,15.25800991,
4.529166698,15.60248375,
4.530833244,15.65595722,
4.532500267,15.46710777,
4.534166813,15.75470734,
4.535833359,15.29563522,
4.537499905,15.36454105,
4.539166927,15.17577076,
4.540833473,15.37733746,
4.542500496,15.7216711,
4.544166565,15.45351505,
4.545833111,15.78159618,
4.547500134,15.35208702,
4.549166679,15.4370079,
4.550833702,15.15258884,
4.552499771,15.53078651,
4.554166794,15.55970383,
4.55583334,15.81186104,
4.557500362,15.24341393,
4.559166908,15.5316534,
4.560833454,15.85553932,
4.5625,15.94143581,
4.564166546,15.43035412,
4.565833569,15.58147907,
4.567500114,15.25481987,
4.56916666,15.35598469,
4.570833206,15.37905121,
4.572500229,15.76865673,
4.574166775,15.28371525,
4.575833797,15.52959061,
4.577499866,15.46048355,
4.579166889,15.38013744,
4.580833435,15.57875824,
4.582499981,15.50628471,
4.584167004,15.63634872,
4.585833073,15.03154278,
4.587500095,15.42913914,
4.589166641,15.47800922,
4.590833664,15.51192284,
4.59250021,15.48242283,
4.594166756,15.53533554,
4.595833302,15.67102432,
4.597500324,15.61210346,
4.59916687,15.38821888,
4.600833416,15.54058838,
4.602499962,15.54090214,
4.604166508,15.60842991,
4.60583353,15.55542469,
4.607500076,15.23962498,
4.609167099,15.65565681,
4.610833168,15.51685429,
4.612500191,15.06450272,
4.614166737,15.70315075,
4.615833759,15.7073288,
4.617500305,15.11418152,
4.619166374,15.48411942,
4.620833397,15.6505537,
4.622499943,15.7922411,
4.624166965,15.22484016,
4.625833511,15.73148155,
4.627500057,15.50451374,
4.629166603,15.49868774,
4.630833626,15.22454739,
4.632500172,15.71346855,
4.634167194,15.3693285,
4.635833263,15.50474453,
4.637499809,15.99966908,
4.639166832,15.30714798,
4.640833378,15.56436539,
4.642500401,15.45884705,
4.64416647,15.35950375,
4.645833492,15.49711323,
4.647500038,15.24745846,
4.649167061,15.65474606,
4.650833607,15.5152483,
4.652499676,15.2837019,
4.654166698,15.6327467,
4.655833244,15.29201984,
4.657500267,15.88745213,
4.659166813,15.27727795,
4.660833359,15.26317978,
4.662499905,15.70032024,
4.664166927,15.6263876,
4.665833473,14.82635784,
4.667500496,15.36203003,
4.669166565,15.56552792,
4.670833111,15.35726357,
4.672500134,15.507967,
4.674166679,15.48139095,
4.675833702,15.66286945,
4.677499771,15.19938564,
4.679166794,15.60970402,
4.68083334,15.32223034,
4.682500362,15.85451508,
4.684166908,15.49188042,
4.685833454,15.80419731,
4.6875,15.34681702,
4.689166546,15.27205467,
4.690833569,15.60554504,
4.692500114,15.59347439,
4.69416666,15.68678188,
4.695833206,15.67335415,
4.697500229,15.69201946,
4.699166775,15.15292931,
4.700833797,15.71238804,
4.702499866,15.25721836,
4.704166889,15.65656662,
4.705833435,15.28672981,
4.707499981,15.48059464,
4.709167004,15.15291595,
4.710833073,15.90508366,
4.712500095,15.69957256,
4.714166641,15.35797215,
4.715833664,15.83160496,
4.71750021,15.61831093,
4.719166756,15.49652672,
4.720833302,15.34756565,
4.722500324,15.21902466,
4.72416687,15.71399879,
4.725833416,15.55994225,
4.727499962,15.11250782,
4.729166508,15.60317802,
4.73083353,15.61042595,
4.732500076,15.17576599,
4.734167099,15.45391464,
4.735833168,15.71687508,
4.737500191,15.22410202,
4.739166737,15.49946976,
4.740833759,15.58266735,
4.742500305,15.33244514,
4.744166374,15.42266941,
4.745833397,15.36761284,
4.747499943,15.68641186,
4.749166965,15.45381546,
4.750833511,15.58075333,
4.752500057,15.61744022,
4.754166603,15.33735085,
4.755833626,15.44362926,
4.757500172,15.64643192,
4.759167194,15.32770252,
4.760833263,15.65388775,
4.762499809,15.68943405,
4.764166832,15.41724396,
4.765833378,15.68824387,
4.767500401,15.39256954,
4.76916647,15.6359024,
4.770833492,15.62527752,
4.772500038,15.58883286,
4.774167061,15.60646725,
4.775833607,15.28224182,
4.777499676,15.70794582,
4.779166698,15.67735481,
4.780833244,15.80907822,
4.782500267,15.53943348,
4.784166813,15.69311714,
4.785833359,15.65756416,
4.787499905,15.55340862,
4.789166927,15.73385525,
4.790833473,15.177145,
4.792500496,15.57790661,
4.794166565,15.48125267,
4.795833111,15.40413094,
4.797500134,15.43888283,
4.799166679,15.23692417,
4.800833702,15.74909496,
4.802499771,15.54807377,
4.804166794,15.10812759,
4.80583334,15.02110863,
4.807500362,15.53737545,
4.809166908,15.27789116,
4.810833454,15.16113186,
4.8125,15.34903908,
4.814166546,15.5291338,
4.815833569,15.87150097,
4.817500114,15.25413799,
4.81916666,15.23455906,
4.820833206,15.43235588,
4.822500229,15.51769257,
4.824166775,15.50840569,
4.825833797,15.39134789,
4.827499866,15.55875778,
4.829166889,15.67010403,
4.830833435,15.57770252,
4.832499981,15.55234432,
4.834167004,15.51046562,
4.835833073,15.54588318,
4.837500095,15.37499046,
4.839166641,15.28261089,
4.840833664,15.70549965,
4.84250021,15.3579998,
4.844166756,15.13280678,
4.845833302,15.11150551,
4.847500324,15.66115379,
4.84916687,15.38407898,
4.850833416,15.86381149,
4.852499962,15.52851677,
4.854166508,15.38173199,
4.85583353,15.6997385,
4.857500076,15.39553738,
4.859167099,15.88774109,
4.860833168,15.32560349,
4.862500191,15.40952301,
4.864166737,15.43525219,
4.865833759,15.38290691,
4.867500305,15.67932987,
4.869166374,15.5829401,
4.870833397,15.64601803,
4.872499943,15.55945015,
4.874166965,15.18067837,
4.875833511,15.39910221,
4.877500057,15.26266384,
4.879166603,15.39917755,
4.880833626,15.65947056,
4.882500172,15.67072392,
4.884167194,15.90661144,
4.885833263,15.28289986,
4.887499809,15.53348351,
4.889166832,15.73246765,
4.890833378,15.37528515,
4.892500401,15.42516708,
4.89416647,15.68863201,
4.895833492,15.55121613,
4.897500038,15.62037945,
4.899167061,15.5670166,
4.900833607,15.41056252,
4.902499676,15.33834076,
4.904166698,15.82063007,
4.905833244,15.3134737,
4.907500267,15.28089619,
4.909166813,15.79317665,
4.910833359,15.30502605,
4.912499905,15.80004406,
4.914166927,15.33222771,
4.915833473,14.99849987,
4.917500496,15.34734821,
4.919166565,15.59142971,
4.920833111,15.89254093,
4.922500134,15.29007053,
4.924166679,15.20997524,
4.925833702,15.77661419,
4.927499771,15.29821491,
4.929166794,15.55360413,
4.93083334,15.5060215,
4.932500362,15.41780663,
4.934166908,15.55530357,
4.935833454,15.80458832,
4.9375,15.28384304,
4.939166546,15.49433422,
4.940833569,15.57138634,
4.942500114,15.56436348,
4.94416666,15.40326881,
4.945833206,15.46884727,
4.947500229,15.55415344,
4.949166775,15.70090103,
4.950833797,15.52613068,
4.952499866,15.79317856,
4.954166889,15.24377823,
4.955833435,15.54145622,
4.957499981,15.43092823,
4.959167004,15.3857708,
4.960833073,15.64470863,
4.962500095,15.55717182,
4.964166641,15.55772591,
4.965833664,15.5007782,
4.96750021,15.20403576,
4.969166756,15.3915453,
4.970833302,15.4714613,
4.972500324,15.25253105,
4.97416687,15.2968502,
4.975833416,15.43729305,
4.977499962,15.84592628,
4.979166508,15.44053459,
4.98083353,15.53726768,
4.982500076,15.3032999,
4.984167099,15.87096214,
4.985833168,15.25456333,
4.987500191,15.32587624,
4.989166737,15.22631741,
4.990833759,15.32446957,
4.992500305,15.66973114,
4.994166374,15.62019157,
4.995833397,15.52554512,
4.997499943,15.29845715,
4.999166965,15.38416481,
5.000833511,15.41335487,
5.002500057,15.74619865,
5.004166603,15.51226521,
5.005833626,15.54602337,
5.007500172,15.49596405,
5.009167194,15.26989841,
5.010833263,15.60446453,
5.012499809,15.51172161,
5.014166832,15.80192375,
5.015833378,15.86119461,
5.017500401,15.38908958,
5.01916647,15.72722054,
5.020833492,15.54183102,
5.022500038,15.65685844,
5.024167061,15.75180721,
5.025833607,15.62778091,
5.027499676,15.64699078,
5.029166698,15.45733547,
5.030833244,15.5238266,
5.032500267,15.52664185,
5.034166813,15.82241249,
5.035833359,15.39515209,
5.037499905,15.33531666,
5.039166927,15.3051424,
5.040833473,15.70680523,
5.042500496,15.52545166,
5.044166565,15.56799316,
5.045833111,15.34167671,
5.047500134,15.74661255,
5.049166679,15.32183647,
5.050833702,15.47038746,
5.052499771,15.38306713,
5.054166794,15.75882339,
5.05583334,15.51078129,
5.057500362,15.45983696,
5.059166908,15.34772205,
5.060833454,15.52715206,
5.0625,15.55659008,
5.064166546,15.78830338,
5.065833569,15.398139,
5.067500114,15.62490749,
5.06916666,15.43456745,
5.070833206,15.72399044,
5.072500229,15.39555645,
5.074166775,15.5725174,
5.075833797,15.52594566,
5.077499866,15.38878918,
5.079166889,15.55910683,
5.080833435,15.52826118,
5.082499981,15.80016708,
5.084167004,15.9265213,
5.085833073,15.56871414,
5.087500095,15.46801758,
5.089166641,15.50138664,
5.090833664,15.18132401,
5.09250021,15.25322056,
5.094166756,15.22512054,
5.095833302,15.78218269,
5.097500324,15.65764427,
5.09916687,15.68106556,
5.100833416,15.55317974,
5.102499962,15.44885159,
5.104166508,15.50668621,
5.10583353,15.49280071,
5.107500076,15.27100277,
5.109167099,15.44215965,
5.110833168,15.60321903,
5.112500191,15.75518227,
5.114166737,15.18519592,
5.115833759,15.52945518,
5.117500305,15.24666309,
5.119166374,15.74966717,
5.120833397,15.59881783,
5.122499943,15.11417294,
5.124166965,15.51748657,
5.125833511,15.607234,
5.127500057,15.66308403,
5.129166603,15.19652367,
5.130833626,15.85078239,
5.132500172,15.63190269,
5.134167194,15.64854527,
5.135833263,15.10593796,
5.137499809,15.65385628,
5.139166832,15.56649399,
5.140833378,15.93112183,
5.142500401,15.75963211,
5.14416647,15.7016573,
5.145833492,15.4561491,
5.147500038,15.59622002,
5.149167061,15.62784576,
5.150833607,15.40381336,
5.152499676,15.42238331,
5.154166698,15.57942677,
5.155833244,15.29418564,
5.157500267,15.46418953,
5.159166813,15.6027689,
5.160833359,15.46538162,
5.162499905,15.66750717,
5.164166927,15.40793991,
5.165833473,15.57902241,
5.167500496,15.57546711,
5.169166565,15.55994606,
5.170833111,15.47340488,
5.172500134,15.55608463,
5.174166679,15.40541649,
5.175833702,15.68309784,
5.177499771,15.25451946,
5.179166794,15.71149158,
5.18083334,15.70358086,
5.182500362,15.77941704,
5.184166908,15.70380306,
5.185833454,15.74571228,
5.1875,15.40993309,
5.189166546,15.64580154,
5.190833569,15.71302891,
5.192500114,15.28559875,
5.19416666,15.2984457,
5.195833206,15.32758713,
5.197500229,15.13220882,
5.199166775,15.60085487,
5.200833797,15.7526226,
5.202499866,15.41019726,
5.204166889,15.45621967,
5.205833435,15.63130093,
5.207499981,15.35085011,
5.209167004,15.24162674,
5.210833073,15.6128664,
5.212500095,15.6381855,
5.214166641,15.56117916,
5.215833664,15.7148838,
5.21750021,15.855093,
5.219166756,15.55844116,
5.220833302,15.48743629,
5.222500324,15.24495602,
5.22416687,15.46854305,
5.225833416,15.576231,
5.227499962,15.39437866,
5.229166508,15.47375107,
5.23083353,15.02922821,
5.232500076,15.57236671,
5.234167099,15.71029758,
5.235833168,15.92391872,
5.237500191,15.82692528,
5.239166737,15.32006741,
5.240833759,15.44320965,
5.242500305,15.31850529,
5.244166374,15.30455494,
5.245833397,15.59064579,
5.247499943,15.39357281,
5.249166965,15.63978577,
5.250833511,15.55639458,
5.252500057,15.24618816,
5.254166603,15.79811573,
5.255833626,15.50750542,
5.257500172,15.78846741,
5.259167194,15.42978859,
5.260833263,15.19322205,
5.262499809,15.20277214,
5.264166832,15.64020443,
5.265833378,15.47620487,
5.267500401,15.678339,
5.26916647,15.45127296,
5.270833492,15.87385464,
5.272500038,15.39781094,
5.274167061,15.26591301,
5.275833607,15.51176357,
5.277499676,14.93642807,
5.279166698,15.87197781,
5.280833244,15.22813129,
5.282500267,15.56820393,
5.284166813,15.68004704,
5.285833359,15.2537756,
5.287499905,15.93707657,
5.289166927,15.29039288,
5.290833473,15.5579052,
5.292500496,15.89268494,
5.294166565,15.44282436,
5.295833111,15.5789814,
5.297500134,15.21001434,
5.299166679,15.59697819,
5.300833702,15.95919609,
5.302499771,15.25966358,
5.304166794,15.49930763,
5.30583334,15.78726768,
5.307500362,15.82837677,
5.309166908,15.49252033,
5.310833454,15.64533234,
5.3125,15.73148727,
5.314166546,15.64571857,
5.315833569,15.46603203,
5.317500114,15.46343708,
5.31916666,15.12368774,
5.320833206,15.72145939,
5.322500229,15.96476173,
5.324166775,15.51116467,
5.325833797,15.28400993,
5.327499866,15.69944477,
5.329166889,15.49267483,
5.330833435,15.48208427,
5.332499981,15.58912373,
5.334167004,15.12742138,
5.335833073,15.12167358,
5.337500095,15.1787138,
5.339166641,15.27446365,
5.340833664,15.55032444,
5.34250021,15.38227272,
5.344166756,15.5451479,
5.345833302,15.58160591,
5.347500324,15.58091736,
5.34916687,15.75595474,
5.350833416,15.73083878,
5.352499962,15.55243683,
5.354166508,15.57487297,
5.35583353,15.63115788,
5.357500076,15.13790417,
5.359167099,15.73109627,

