1,,
Time (min),Intensity (a.u.),
0.0008333333535,237.8564453,
0.002500000177,241.092392,
0.004166666884,238.5072327,
0.005833333358,240.2587433,
0.007500000298,240.4407196,
0.009166667238,238.3305206,
0.01083333418,240.2871399,
0.01250000019,239.7152557,
0.01416666713,239.5997772,
0.01583333313,240.107605,
0.01750000194,239.4437561,
0.01916666701,238.6272583,
0.02083333395,239.6460876,
0.02250000089,240.2423248,
0.02416666783,237.9742279,
0.02583333477,239.7000885,
0.02749999985,239.4362946,
0.02916666679,238.4664307,
0.03083333373,238.2627411,
0.03250000253,240.0067291,
0.03416666761,240.0465393,
0.03583333641,239.632309,
0.03750000149,241.053009,
0.03916667029,239.4719696,
0.04083333537,239.5308075,
0.04250000045,239.8361206,
0.04416666925,240.4083862,
0.04583333433,240.0482025,
0.04750000313,239.8773193,
0.04916666821,239.0843506,
0.05083333328,237.9164276,
0.05250000209,237.6551056,
0.05416666716,239.2284241,
0.05583333597,240.000473,
0.05750000104,238.7382813,
0.05916666612,240.2457428,
0.06083333492,238.4951782,
0.0625,237.4408417,
0.06416667253,238.6505432,
0.0658333376,238.9695435,
0.06750000268,239.2975006,
0.06916666776,240.5845032,
0.07083333284,240.1570587,
0.07249999791,239.2035675,
0.07416667044,239.3887482,
0.07583333552,238.213028,
0.0775000006,240.5890503,
0.07916666567,238.4849548,
0.08083333075,239.2539368,
0.08250000328,238.7289124,
0.08416666836,239.3953857,
0.08583333343,239.794281,
0.08749999851,239.4807129,
0.08916666359,238.6041107,
0.09083333611,239.2263184,
0.09250000119,239.2720947,
0.09416666627,239.7810364,
0.09583333135,239.8473053,
0.09749999642,239.8648834,
0.09916666895,239.2982635,
0.100833334,239.7621002,
0.1024999991,238.5464783,
0.1041666642,238.6109314,
0.1058333293,238.7468109,
0.1075000018,239.7418365,
0.1091666669,239.3406067,
0.1108333319,239.1990204,
0.112499997,239.2425537,
0.1141666621,238.8226929,
0.1158333346,239.7297363,
0.1174999997,240.8061829,
0.1191666648,239.3596344,
0.1208333299,239.2702484,
0.1224999949,239.338028,
0.1241666749,240.3830261,
0.1258333325,238.7219543,
0.1274999976,238.9445038,
0.1291666627,239.7453003,
0.1308333278,238.8672333,
0.1325000077,238.7159119,
0.1341666728,238.0312653,
0.1358333379,240.2519684,
0.137500003,238.2764587,
0.1391666681,239.0613098,
0.1408333331,238.1517487,
0.1424999982,238.4831848,
0.1441666782,240.0374603,
0.1458333284,238.9858856,
0.1475000083,238.9124603,
0.1491666585,238.3583221,
0.1508333385,238.5585785,
0.1525000036,237.9154816,
0.1541666687,240.0090332,
0.1558333337,239.0065765,
0.1574999988,239.2823334,
0.1591666639,238.9336395,
0.1608333439,240.6605988,
0.162499994,238.9141235,
0.164166674,238.9575653,
0.1658333242,239.3639221,
0.1675000042,237.8370667,
0.1691666692,238.0205688,
0.1708333343,239.4880829,
0.1724999994,238.843277,
0.1741666645,239.7904205,
0.1758333296,239.0762177,
0.1775000095,240.3617249,
0.1791666597,238.5913086,
0.1808333397,239.2701569,
0.1824999899,238.2987061,
0.1841666698,238.8124695,
0.1858333498,238.6210785,
0.1875,239.1791687,
0.18916668,239.8439636,
0.1908333302,239.4457245,
0.1925000101,238.0203857,
0.1941666752,239.1858063,
0.1958333403,239.1487427,
0.1975000054,238.1998138,
0.1991666704,239.778717,
0.2008333355,238.0194702,
0.2025000155,239.8522949,
0.2041666657,238.3263397,
0.2058333457,239.1079865,
0.2074999958,238.8648987,
0.2091666758,238.4712219,
0.2108333409,240.7954102,
0.212500006,239.4013214,
0.214166671,240.1983337,
0.2158333361,239.7718964,
0.2175000012,238.7205963,
0.2191666812,237.3026581,
0.2208333313,238.666214,
0.2225000113,239.3516541,
0.2241666615,239.3092499,
0.2258333415,239.7933655,
0.2275000066,240.0868225,
0.2291666716,239.2625885,
0.2308333367,239.7364502,
0.2325000018,238.358551,
0.2341666669,239.7163544,
0.2358333468,238.8473053,
0.237499997,239.3818665,
0.239166677,239.7841492,
0.2408333272,239.0762482,
0.2425000072,239.4955444,
0.2441666722,239.7126923,
0.2458333373,239.4632568,
0.2475000024,239.8345184,
0.2491666675,239.9812012,
0.2508333325,238.0513611,
0.2524999976,238.4788513,
0.2541666627,240.6687927,
0.2558333278,238.4855957,
0.2574999928,239.759491,
0.2591666579,237.7929382,
0.2608333528,238.8934631,
0.2624999881,239.5816498,
0.264166683,238.6476288,
0.2658333182,238.1877441,
0.2675000131,239.9396515,
0.2691666484,238.2496948,
0.2708333433,240.0056915,
0.2725000083,240.2108612,
0.2741666734,238.6999054,
0.2758333385,238.8298187,
0.2775000036,239.366745,
0.2791666687,239.6030731,
0.2808333337,239.8385925,
0.2824999988,238.6796265,
0.2841666937,239.1651459,
0.285833329,238.0455017,
0.287499994,239.4431152,
0.2891666591,237.7137451,
0.290833354,239.1313477,
0.2925000191,238.3347473,
0.2941666543,237.4789276,
0.2958333194,238.921936,
0.2975000143,236.5888519,
0.2991666794,237.7584381,
0.3008333445,239.0141296,
0.3024999797,238.3681488,
0.3041666746,238.6253815,
0.3058333397,238.3064117,
0.3075000048,238.3569794,
0.3091666996,240.6656342,
0.3108333349,238.2300415,
0.3125,237.5898132,
0.3141666651,239.8136292,
0.31583336,238.5407562,
0.317500025,237.8986511,
0.3191666603,238.6183624,
0.3208333254,239.422821,
0.3225000203,238.6247101,
0.3241666853,238.9968567,
0.3258333504,238.7230988,
0.3274999857,237.9320221,
0.3291666806,238.5473022,
0.3308333457,239.4515686,
0.3325000107,239.9670258,
0.3341666758,239.1764832,
0.3358333409,239.000351,
0.337500006,237.9106445,
0.339166671,238.6708374,
0.3408333361,237.955368,
0.342500031,238.621048,
0.3441666663,238.11026,
0.3458333313,239.2492371,
0.3474999964,239.2137299,
0.3491666913,239.4475708,
0.3508333564,238.5110931,
0.3524999917,238.5742035,
0.3541666567,238.7385559,
0.3558333516,239.1812286,
0.3575000167,239.6395264,
0.3591666818,238.249054,
0.360833317,238.010498,
0.3625000119,239.0205994,
0.364166677,238.3813324,
0.3658333421,237.3252563,
0.3675000072,238.3577271,
0.3691666722,239.1641693,
0.3708333373,237.3777313,
0.3725000024,239.4703522,
0.3741666675,238.6184235,
0.3758333623,239.3359375,
0.3774999976,237.1693726,
0.3791666627,240.2491913,
0.3808333278,239.1880646,
0.3825000226,237.5166626,
0.3841666877,239.8448181,
0.385833323,238.951004,
0.3874999881,237.9419708,
0.389166683,237.975296,
0.390833348,238.2512054,
0.3925000131,238.8442993,
0.3941666484,239.6113281,
0.3958333433,240.0123138,
0.3975000083,238.8771973,
0.3991666734,240.8648682,
0.4008333385,237.8447876,
0.4025000036,238.5576172,
0.4041666687,240.3970184,
0.4058333337,238.9850311,
0.4074999988,238.1369781,
0.4091666937,239.0806122,
0.410833329,237.7781372,
0.412499994,238.5602417,
0.4141666591,239.2259521,
0.415833354,239.4198456,
0.4175000191,238.0845947,
0.4191666543,238.2542267,
0.4208333194,238.6027527,
0.4225000143,239.6183167,
0.4241666794,239.2454529,
0.4258333445,237.9006195,
0.4274999797,238.2618713,
0.4291666746,239.5000763,
0.4308333397,238.4608459,
0.4325000048,239.4883423,
0.4341666996,239.3070526,
0.4358333349,239.0179138,
0.4375,238.3035126,
0.4391666651,239.4433899,
0.44083336,240.2391968,
0.442500025,240.2952118,
0.4441666603,238.3112335,
0.4458333254,240.502182,
0.4475000203,238.9134979,
0.4491666853,239.052948,
0.4508333504,236.6557007,
0.4524999857,238.2285614,
0.4541666806,238.5778046,
0.4558333457,238.6087341,
0.4575000107,238.9347076,
0.4591666758,239.4770203,
0.4608333409,239.3525085,
0.462500006,237.8901978,
0.464166671,237.9300537,
0.4658333361,238.098053,
0.467500031,238.7861481,
0.4691666663,238.3197174,
0.4708333313,238.5617218,
0.4724999964,239.0763397,
0.4741666913,238.6677246,
0.4758333564,240.2322083,
0.4774999917,237.2619476,
0.4791666567,238.3864441,
0.4808333516,239.4032593,
0.4825000167,238.795578,
0.4841666818,238.7375336,
0.485833317,238.26651,
0.4875000119,239.0503082,
0.489166677,239.4903564,
0.4908333421,239.0642548,
0.4925000072,237.8219604,
0.4941666722,238.4152832,
0.4958333373,237.8109741,
0.4975000024,237.584671,
0.4991666675,237.3891449,
0.5008333325,239.0371094,
0.5024999976,239.094696,
0.5041666627,237.397934,
0.5058333278,238.062149,
0.5074999928,238.1250153,
0.5091666579,236.9243469,
0.510833323,238.2989502,
0.5124999881,239.3199921,
0.5141666532,239.1292419,
0.5158333182,239.3718262,
0.5175000429,238.1183014,
0.5191666484,239.6144867,
0.5208333135,238.9196014,
0.5224999785,239.1234894,
0.5241667032,238.3043213,
0.5258333683,239.6145172,
0.5274999738,239.8761902,
0.5291666389,238.8194275,
0.5308333635,239.311203,
0.5325000286,237.5360718,
0.5341666341,238.7906494,
0.5358333588,240.0253754,
0.5375000238,238.56073,
0.5391666889,239.5309296,
0.540833354,238.6725311,
0.5424999595,238.8001404,
0.5441666842,237.5162964,
0.5458333492,239.3226929,
0.5475000143,237.8234406,
0.5491666794,239.1972809,
0.5508333445,238.3315887,
0.5525000095,239.6390839,
0.5541666746,236.7681885,
0.5558333993,237.6814117,
0.5575000048,239.0182648,
0.5591666698,239.5084686,
0.5608333349,239.0428009,
0.5625,237.2142181,
0.5641667247,238.6865997,
0.5658333302,239.3909607,
0.5674999952,239.2705078,
0.5691667199,237.2144928,
0.5708333254,237.9357452,
0.5725000501,238.5873566,
0.5741666555,238.8521729,
0.5758333206,239.768692,
0.5775000453,239.0127258,
0.5791666508,239.1442719,
0.5808333755,239.1381378,
0.5825000405,239.146225,
0.584166646,237.5481415,
0.5858333707,239.1196442,
0.5874999762,238.643631,
0.5891667008,238.9365387,
0.5908333659,240.7332001,
0.5924999714,237.2732544,
0.5941666961,238.5615997,
0.5958333611,239.3305054,
0.5975000262,238.6716919,
0.5991666913,239.5101013,
0.6008332968,237.1812592,
0.6025000215,238.7888336,
0.6041666865,238.9967499,
0.6058333516,238.4362488,
0.6075000167,239.9225922,
0.6091666818,239.2319183,
0.6108333468,236.8666382,
0.6125000119,239.2443695,
0.614166677,238.7464905,
0.6158333421,239.7431488,
0.6175000072,238.3492889,
0.6191666722,238.2375336,
0.6208333373,239.2658997,
0.622500062,237.3781586,
0.6241666675,239.5040283,
0.6258333325,238.8785553,
0.6274999976,239.6250763,
0.6291666627,239.1322479,
0.6308333874,238.5120239,
0.6324999928,239.6512146,
0.6341666579,238.6805573,
0.6358333826,237.7680206,
0.6374999881,238.9141998,
0.6391667128,238.45578,
0.6408333182,238.007431,
0.6424999833,237.7674408,
0.644166708,240.4699402,
0.6458333135,238.5294952,
0.6475000381,240.5245514,
0.6491667032,238.4010162,
0.6508333087,238.8487549,
0.6525000334,238.8943481,
0.6541666389,237.72612,
0.6558333635,238.8401489,
0.6575000286,239.059494,
0.6591666341,240.0623016,
0.6608333588,238.7997437,
0.6625000238,240.2563629,
0.6641666889,238.1772156,
0.665833354,238.5272827,
0.6674999595,237.5023499,
0.6691666842,237.6060028,
0.6708333492,236.6534729,
0.6725000143,238.9750366,
0.6741666794,238.8626709,
0.6758333445,239.2571106,
0.6775000095,240.1386108,
0.6791666746,237.6117096,
0.6808333993,237.2953796,
0.6825000048,239.0556946,
0.6841666698,239.5314789,
0.6858333349,238.4409027,
0.6875,238.8288879,
0.6891667247,238.1043243,
0.6908333302,237.9432373,
0.6924999952,239.3607483,
0.6941667199,237.5802155,
0.6958333254,239.1369629,
0.6975000501,237.9827881,
0.6991666555,237.9260254,
0.7008333206,238.9424591,
0.7025000453,239.368576,
0.7041666508,238.8361511,
0.7058333755,238.4138336,
0.7075000405,238.189743,
0.709166646,238.9884644,
0.7108333707,238.2605438,
0.7124999762,239.7843781,
0.7141667008,239.7283173,
0.7158333659,238.6265411,
0.7174999714,237.6976929,
0.7191666961,239.0962677,
0.7208333611,237.2316437,
0.7225000262,239.0770721,
0.7241666913,239.1156311,
0.7258332968,237.9034882,
0.7275000215,237.6671295,
0.7291666865,239.6004028,
0.7308333516,238.8117218,
0.7325000167,240.0474701,
0.7341666818,238.8705444,
0.7358333468,238.1813965,
0.7375000119,239.0425415,
0.739166677,237.488266,
0.7408333421,238.3210602,
0.7425000072,237.7279053,
0.7441666722,238.9617767,
0.7458333373,239.0026703,
0.747500062,239.3375549,
0.7491666675,238.4997406,
0.7508333325,237.0555267,
0.7524999976,239.7928619,
0.7541666627,237.1160736,
0.7558333874,237.2397308,
0.7574999928,238.5681305,
0.7591666579,238.9255371,
0.7608333826,240.4296265,
0.7624999881,238.5228577,
0.7641667128,238.3649597,
0.7658333182,238.7492828,
0.7674999833,238.3665619,
0.769166708,239.0749664,
0.7708333135,238.3960419,
0.7725000381,239.5292969,
0.7741667032,237.6558228,
0.7758333087,238.8834381,
0.7775000334,238.5468597,
0.7791666389,240.3618011,
0.7808333635,237.3543854,
0.7825000286,239.2360535,
0.7841666341,236.9607086,
0.7858333588,240.4953003,
0.7875000238,239.1753235,
0.7891666889,238.9770966,
0.790833354,240.3438263,
0.7924999595,238.4945831,
0.7941666842,238.8316956,
0.7958333492,238.4964294,
0.7975000143,239.0743866,
0.7991666794,238.3667603,
0.8008333445,240.0754852,
0.8025000095,239.1153259,
0.8041666746,239.7713165,
0.8058333993,239.1003571,
0.8075000048,237.941452,
0.8091666698,238.6977844,
0.8108333349,238.6266785,
0.8125,237.6266327,
0.8141667247,238.7793427,
0.8158333302,237.1633301,
0.8174999952,238.4195404,
0.8191667199,239.0383606,
0.8208333254,239.3820801,
0.8225000501,238.4213562,
0.8241666555,237.7515564,
0.8258333206,239.8030853,
0.8275000453,237.988739,
0.8291666508,237.7286682,
0.8308333755,239.0026398,
0.8325000405,237.8222656,
0.834166646,237.8138275,
0.8358333707,236.4046326,
0.8374999762,236.42836,
0.8391667008,238.5584564,
0.8408333659,238.0622101,
0.8424999714,239.2400055,
0.8441666961,239.8278198,
0.8458333611,237.568222,
0.8475000262,238.6831512,
0.8491666913,238.1865234,
0.8508332968,237.8334808,
0.8525000215,239.1781006,
0.8541666865,238.369812,
0.8558333516,238.3594666,
0.8575000167,239.8258514,
0.8591666818,239.8034515,
0.8608333468,238.3278656,
0.8625000119,238.130249,
0.864166677,238.4715271,
0.8658333421,236.9448853,
0.8675000072,238.0041656,
0.8691666722,237.7932587,
0.8708333373,238.0630035,
0.872500062,239.2142639,
0.8741666675,237.9037476,
0.8758333325,240.584137,
0.8774999976,237.4651489,
0.8791666627,236.6994934,
0.8808333874,239.8198242,
0.8824999928,236.9603424,
0.8841666579,238.7695313,
0.8858333826,237.5969543,
0.8874999881,238.50383,
0.8891667128,238.3588562,
0.8908333182,239.7072601,
0.8924999833,238.3349762,
0.894166708,239.5588531,
0.8958333135,239.5120544,
0.8975000381,238.408432,
0.8991667032,238.055069,
0.9008333087,237.6204529,
0.9025000334,239.3787231,
0.9041666389,238.1556244,
0.9058333635,238.6063995,
0.9075000286,237.7406006,
0.9091666341,241.4376526,
0.9108333588,239.0335693,
0.9125000238,237.6534729,
0.9141666889,237.2174225,
0.915833354,238.1369781,
0.9174999595,239.6483917,
0.9191666842,236.5675812,
0.9208333492,239.6897888,
0.9225000143,237.471405,
0.9241666794,238.0097046,
0.9258333445,239.2059937,
0.9275000095,238.9353485,
0.9291666746,237.5298309,
0.9308333993,238.1216125,
0.9325000048,237.3633881,
0.9341666698,237.0740509,
0.9358333349,238.0621185,
0.9375,238.5958099,
0.9391667247,238.0501099,
0.9408333302,238.0980682,
0.9424999952,238.7994232,
0.9441667199,238.7185211,
0.9458333254,238.0674133,
0.9475000501,240.1720123,
0.9491666555,236.6523895,
0.9508333206,239.0398712,
0.9525000453,238.1687927,
0.9541666508,238.709671,
0.9558333755,237.6982574,
0.9575000405,237.9875946,
0.959166646,238.2767334,
0.9608333707,238.6322479,
0.9624999762,238.7121124,
0.9641667008,238.6158905,
0.9658333659,238.2785034,
0.9674999714,236.3872223,
0.9691666961,236.9555817,
0.9708333611,236.5931091,
0.9725000262,237.4198608,
0.9741666913,238.9272766,
0.9758332968,237.402832,
0.9775000215,237.6695251,
0.9791666865,239.3343201,
0.9808333516,238.1412354,
0.9825000167,239.182251,
0.9841666818,237.5631714,
0.9858333468,239.0986023,
0.9875000119,236.4654388,
0.989166677,238.7435913,
0.9908333421,236.7137451,
0.9925000072,239.7692413,
0.9941666722,239.3757477,
0.9958333373,237.4169006,
0.997500062,237.9201813,
0.9991666675,238.2857208,
1.000833273,239.5724182,
1.002500057,236.9275818,
1.004166722,237.5179596,
1.005833387,238.3595428,
1.007500052,237.834549,
1.009166598,238.2640991,
1.010833383,237.7302246,
1.012500048,237.4887695,
1.014166713,239.4183502,
1.015833378,237.2206879,
1.017500043,238.3551178,
1.019166708,238.6353607,
1.020833373,237.6970062,
1.022500038,237.3118439,
1.024166703,238.1996613,
1.025833368,238.3841705,
1.027500033,238.2185822,
1.029166698,239.7165375,
1.030833364,238.0441284,
1.032500029,238.2982788,
1.034166694,237.9275665,
1.035833359,238.6106567,
1.037500024,237.3763733,
1.039166689,228.1338959,
1.040833354,203.8671112,
1.042500019,207.2746277,
1.044166684,210.8315735,
1.045833349,211.8796692,
1.047500014,209.3576202,
1.049166679,219.835556,
1.050833344,225.9043732,
1.05250001,218.2097931,
1.054166675,215.7100525,
1.05583334,213.7895203,
1.057500005,212.021225,
1.05916667,211.9043579,
1.060833335,210.5404968,
1.0625,197.1963043,
1.064166665,188.2771301,
1.06583333,198.3184204,
1.067499995,205.8403473,
1.06916666,186.5805359,
1.070833325,206.9667206,
1.07249999,186.2700958,
1.074166775,185.9126892,
1.07583344,207.0183258,
1.077499986,192.8273773,
1.079166651,181.9905396,
1.080833316,205.9549713,
1.0825001,196.6854248,
1.084166765,206.8496704,
1.085833311,205.2464905,
1.087499976,200.090744,
1.089166641,196.4099884,
1.090833426,156.9803925,
1.092500091,153.5401154,
1.094166636,183.0871429,
1.095833302,195.8492889,
1.097499967,194.7459717,
1.099166751,193.4701843,
1.100833416,193.3959351,
1.102500081,192.3644257,
1.104166627,192.6352386,
1.105833292,188.8594818,
1.107500076,188.3541718,
1.109166741,185.7867279,
1.110833406,186.3672943,
1.112499952,184.7904968,
1.114166617,184.2671356,
1.115833402,182.5900269,
1.117500067,183.6023407,
1.119166732,180.7380981,
1.120833278,180.1098022,
1.122499943,179.633728,
1.124166727,180.5104675,
1.125833392,177.4024506,
1.127500057,177.9192505,
1.129166722,177.9095459,
1.130833268,176.3960571,
1.132500052,175.8377838,
1.134166718,176.1452332,
1.135833383,174.0460052,
1.137500048,173.8513184,
1.139166594,172.1099091,
1.140833378,172.8337402,
1.142500043,172.5058289,
1.144166708,171.960434,
1.145833373,172.7460022,
1.147499919,170.7770691,
1.149166703,171.2938995,
1.150833368,171.1899414,
1.152500033,168.8282928,
1.154166698,170.5900269,
1.155833364,169.2048645,
1.157500029,169.4075623,
1.159166694,168.8240967,
1.160833359,167.5237122,
1.162500024,167.3922882,
1.164166689,167.1117249,
1.165833354,166.315033,
1.167500019,164.9661865,
1.169166684,165.5644379,
1.170833349,165.6192169,
1.172500014,164.5895996,
1.174166799,163.9871521,
1.175833344,163.1929169,
1.17750001,163.7121124,
1.179166675,162.4411011,
1.18083334,161.6839142,
1.182500124,163.2261047,
1.18416667,162.5283508,
1.185833335,162.3718567,
1.1875,163.1129303,
1.189166665,162.739502,
1.190833449,161.2001343,
1.192499995,160.4278412,
1.19416666,161.8045502,
1.195833325,160.1397247,
1.19749999,159.427536,
1.199166775,159.9577179,
1.20083344,159.0857697,
1.202499986,158.8280029,
1.204166651,159.4046631,
1.205833316,159.4477386,
1.2075001,158.6928406,
1.209166765,158.4577026,
1.210833311,157.4921417,
1.212499976,157.9157562,
1.214166641,157.5923157,
1.215833426,157.20578,
1.217500091,157.4916534,
1.219166636,157.3512878,
1.220833302,158.1630859,
1.222499967,156.9687958,
1.224166751,157.0535583,
1.225833416,155.3419037,
1.227500081,155.0786896,
1.229166627,156.4986725,
1.230833292,156.4667511,
1.232500076,154.8131561,
1.234166741,156.7832184,
1.235833406,155.2629547,
1.237499952,154.0620575,
1.239166617,155.14505,
1.240833402,154.7328796,
1.242500067,154.3792419,
1.244166732,153.6782532,
1.245833278,153.1143036,
1.247499943,153.0270081,
1.249166727,154.3238678,
1.250833392,152.5630951,
1.252500057,152.3423157,
1.254166722,152.6988983,
1.255833268,152.5543213,
1.257500052,152.5582581,
1.259166718,152.3962402,
1.260833383,152.2644196,
1.262500048,152.4055634,
1.264166594,151.9184723,
1.265833378,151.7540283,
1.267500043,151.5365906,
1.269166708,150.31987,
1.270833373,150.3173828,
1.272499919,151.3350525,
1.274166703,150.1487122,
1.275833368,150.098587,
1.277500033,150.5008392,
1.279166698,149.5617828,
1.280833364,150.5952606,
1.282500029,149.8991394,
1.284166694,149.1842804,
1.285833359,149.7104034,
1.287500024,149.976532,
1.289166689,148.7304077,
1.290833354,149.5228271,
1.292500019,148.7546082,
1.294166684,149.3672028,
1.295833349,150.2167969,
1.297500014,148.8667603,
1.299166799,148.1582947,
1.300833344,148.5888672,
1.30250001,148.8796844,
1.304166675,146.7626648,
1.30583334,148.2749176,
1.307500124,149.3774719,
1.30916667,148.0838928,
1.310833335,147.7357025,
1.3125,147.210022,
1.314166665,147.4276886,
1.315833449,149.2833405,
1.317499995,149.1270599,
1.31916666,146.1521759,
1.320833325,147.3544769,
1.32249999,146.0700073,
1.324166775,147.4765625,
1.32583344,147.3882751,
1.327499986,147.2915497,
1.329166651,148.1233978,
1.330833316,147.226059,
1.3325001,146.7131195,
1.334166765,146.3772888,
1.335833311,145.7593842,
1.337499976,145.5783844,
1.339166641,146.253067,
1.340833426,146.9598541,
1.342500091,146.7000427,
1.344166636,146.2793274,
1.345833302,145.1464081,
1.347499967,145.5604095,
1.349166751,146.8023682,
1.350833416,146.6165466,
1.352500081,144.8853455,
1.354166627,146.184967,
1.355833292,145.1033936,
1.357500076,145.8457794,
1.359166741,145.1040039,
1.360833406,145.511734,
1.362499952,145.7251892,
1.364166617,146.2116394,
1.365833402,145.4568176,
1.367500067,144.9220886,
1.369166732,144.6202087,
1.370833278,145.1653595,
1.372499943,145.9316864,
1.374166727,144.8629608,
1.375833392,144.649231,
1.377500057,145.1510468,
1.379166722,144.5604706,
1.380833268,144.143158,
1.382500052,145.443634,
1.384166718,143.2045135,
1.385833383,143.550827,
1.387500048,144.0000916,
1.389166594,144.2919464,
1.390833378,143.4373779,
1.392500043,144.758194,
1.394166708,144.2407684,
1.395833373,144.1027832,
1.397499919,143.617218,
1.399166703,143.8728943,
1.400833368,143.2415466,
1.402500033,143.5567932,
1.404166698,144.767334,
1.405833364,143.3100128,
1.407500029,142.4774475,
1.409166694,143.1757202,
1.410833359,142.8336639,
1.412500024,143.3687592,
1.414166689,143.718689,
1.415833354,143.1755829,
1.417500019,142.5359344,
1.419166684,143.5679474,
1.420833349,143.7335968,
1.422500014,142.6643372,
1.424166799,141.2941742,
1.425833344,142.930542,
1.42750001,142.2364197,
1.429166675,142.4864655,
1.43083334,142.4947052,
1.432500124,143.3867798,
1.43416667,143.7045441,
1.435833335,142.2950745,
1.4375,141.9766693,
1.439166665,142.4759369,
1.440833449,142.5863037,
1.442499995,141.8398743,
1.44416666,142.1462708,
1.445833325,143.0368958,
1.44749999,141.0176392,
1.449166775,142.9532013,
1.45083344,141.7007446,
1.452499986,141.5081329,
1.454166651,142.0627594,
1.455833316,142.6352692,
1.4575001,142.6808472,
1.459166765,142.0213623,
1.460833311,141.5163422,
1.462499976,141.9853516,
1.464166641,140.8753052,
1.465833426,140.8174133,
1.467500091,141.5706024,
1.469166636,142.3254089,
1.470833302,140.5778656,
1.472499967,140.2497406,
1.474166751,140.1965637,
1.475833416,140.3696747,
1.477500081,140.83815,
1.479166627,140.6631165,
1.480833292,140.7794952,
1.482500076,140.732605,
1.484166741,140.343811,
1.485833406,140.7308655,
1.487499952,140.0868835,
1.489166617,141.9166412,
1.490833402,141.371933,
1.492500067,140.5660095,
1.494166732,139.7685089,
1.495833278,141.0829163,
1.497499943,141.1975861,
1.499166727,142.1833954,
1.500833392,140.877533,
1.502500057,140.6186676,
1.504166722,141.2172852,
1.505833268,140.9376373,
1.507500052,141.1437378,
1.509166718,140.0363159,
1.510833383,140.6643829,
1.512500048,139.4704437,
1.514166594,140.6388702,
1.515833378,141.2220459,
1.517500043,140.2430725,
1.519166708,140.8205414,
1.520833373,140.0784454,
1.522499919,140.3982391,
1.524166703,140.2356567,
1.525833368,138.7407227,
1.527500033,140.1036682,
1.529166698,139.6799622,
1.530833364,139.8070221,
1.532500029,139.8023224,
1.534166694,140.3619995,
1.535833359,140.1180115,
1.537500024,140.165863,
1.539166689,139.6924133,
1.540833354,141.006485,
1.542500019,139.533371,
1.544166684,140.3911591,
1.545833349,140.3616486,
1.547500014,139.434845,
1.549166799,139.9568024,
1.550833344,138.6290131,
1.55250001,138.9875488,
1.554166675,138.0115814,
1.55583334,139.0368042,
1.557500124,138.6225281,
1.55916667,139.1861115,
1.560833335,138.6988068,
1.5625,137.5836182,
1.564166665,138.3307037,
1.565833449,138.598526,
1.567499995,139.1730804,
1.56916666,138.8846283,
1.570833325,139.0957794,
1.57249999,138.8779755,
1.574166775,137.978363,
1.57583344,138.6703949,
1.577499986,139.0652008,
1.579166651,138.8421936,
1.580833316,138.6315613,
1.5825001,138.2632751,
1.584166765,138.9915009,
1.585833311,139.0614014,
1.587499976,139.3846893,
1.589166641,139.5958099,
1.590833426,138.0918579,
1.592500091,138.0949707,
1.594166636,138.4759979,
1.595833302,138.7306976,
1.597499967,138.3106842,
1.599166751,138.3497467,
1.600833416,138.2268524,
1.602500081,140.2158508,
1.604166627,137.642334,
1.605833292,139.8741455,
1.607500076,137.6953583,
1.609166741,137.8995972,
1.610833406,138.2687531,
1.612499952,137.6430054,
1.614166617,138.704834,
1.615833402,137.976181,
1.617500067,138.0797729,
1.619166732,138.1236267,
1.620833278,138.678833,
1.622499943,136.9110413,
1.624166727,138.0948181,
1.625833392,137.6781769,
1.627500057,137.4472656,
1.629166722,137.7998505,
1.630833268,138.1858215,
1.632500052,138.3443298,
1.634166718,138.0021973,
1.635833383,137.614563,
1.637500048,137.9464722,
1.639166594,137.5374451,
1.640833378,137.9049072,
1.642500043,138.0170441,
1.644166708,138.572403,
1.645833373,137.0201111,
1.647499919,137.5962982,
1.649166703,137.6021271,
1.650833368,137.5635681,
1.652500033,137.4334869,
1.654166698,137.5203705,
1.655833364,137.8133087,
1.657500029,138.0281372,
1.659166694,135.8744659,
1.660833359,136.9620056,
1.662500024,136.6815186,
1.664166689,137.4403076,
1.665833354,137.4819183,
1.667500019,137.4274445,
1.669166684,136.2722473,
1.670833349,138.0696259,
1.672500014,137.0111847,
1.674166799,138.2476044,
1.675833344,136.3770142,
1.67750001,136.7540894,
1.679166675,136.4314423,
1.68083334,137.3009491,
1.682500124,137.289505,
1.68416667,136.3657837,
1.685833335,136.8533783,
1.6875,137.4186401,
1.689166665,137.4211731,
1.690833449,137.6854095,
1.692499995,137.1493988,
1.69416666,136.2108917,
1.695833325,136.9750671,
1.69749999,137.9253387,
1.699166775,137.4573822,
1.70083344,137.4448242,
1.702499986,136.3930969,
1.704166651,138.2178497,
1.705833316,137.0771942,
1.7075001,136.3493958,
1.709166765,136.4003296,
1.710833311,136.8769379,
1.712499976,136.0395355,
1.714166641,137.0575562,
1.715833426,137.3419647,
1.717500091,137.1187134,
1.719166636,137.0693359,
1.720833302,136.653244,
1.722499967,136.9259491,
1.724166751,136.6720581,
1.725833416,136.4438477,
1.727500081,137.8913879,
1.729166627,136.1932526,
1.730833292,135.5341949,
1.732500076,136.6004791,
1.734166741,137.743576,
1.735833406,137.2850342,
1.737499952,135.7754974,
1.739166617,135.7086945,
1.740833402,135.9942017,
1.742500067,136.9476776,
1.744166732,136.6083221,
1.745833278,135.8062897,
1.747499943,135.7264099,
1.749166727,136.1888275,
1.750833392,135.3249512,
1.752500057,135.7022705,
1.754166722,136.7978363,
1.755833268,135.9963379,
1.757500052,136.8089294,
1.759166718,136.0901337,
1.760833383,135.6880188,
1.762500048,136.5254822,
1.764166594,136.2224121,
1.765833378,136.0899506,
1.767500043,135.9326477,
1.769166708,135.7496338,
1.770833373,136.3211212,
1.772499919,137.0638733,
1.774166703,135.7667236,
1.775833368,137.5222321,
1.777500033,135.6070251,
1.779166698,136.2756653,
1.780833364,136.1324768,
1.782500029,135.8214111,
1.784166694,135.0449524,
1.785833359,135.2266541,
1.787500024,136.0451508,
1.789166689,135.6109619,
1.790833354,136.3630829,
1.792500019,136.3473969,
1.794166684,136.1551666,
1.795833349,135.8300323,
1.797500014,135.4807129,
1.799166799,135.6914978,
1.800833344,135.984787,
1.80250001,134.7045746,
1.804166675,136.8729858,
1.80583334,134.2019043,
1.807500124,135.728241,
1.80916667,135.603775,
1.810833335,134.829422,
1.8125,135.4765015,
1.814166665,135.8139191,
1.815833449,135.3188477,
1.817499995,136.2981262,
1.81916666,135.6636658,
1.820833325,135.675705,
1.82249999,135.1507111,
1.824166775,134.9417114,
1.82583344,134.3837738,
1.827499986,135.0143585,
1.829166651,134.9275665,
1.830833316,134.917923,
1.8325001,136.6729431,
1.834166765,134.4134369,
1.835833311,135.4104614,
1.837499976,134.9644012,
1.839166641,135.9958191,
1.840833426,135.5525513,
1.842500091,135.8765564,
1.844166636,136.2536774,
1.845833302,135.381012,
1.847499967,134.6292725,
1.849166751,135.2453308,
1.850833416,135.2032928,
1.852500081,134.9720001,
1.854166627,136.6453857,
1.855833292,134.6701813,
1.857500076,135.2176208,
1.859166741,135.7701874,
1.860833406,134.8266144,
1.862499952,134.8516693,
1.864166617,134.5016174,
1.865833402,135.5174713,
1.867500067,133.3771973,
1.869166732,135.129776,
1.870833278,133.6585846,
1.872499943,135.1908417,
1.874166727,135.832901,
1.875833392,134.5130005,
1.877500057,135.6401978,
1.879166722,134.5916595,
1.880833268,135.7240601,
1.882500052,134.5568848,
1.884166718,134.2891541,
1.885833383,133.8262939,
1.887500048,135.2707367,
1.889166594,135.6391907,
1.890833378,134.8638611,
1.892500043,134.6708679,
1.894166708,135.1513824,
1.895833373,134.9520416,
1.897499919,134.7882996,
1.899166703,135.9167633,
1.900833368,134.8638306,
1.902500033,134.565033,
1.904166698,134.0780334,
1.905833364,134.5964813,
1.907500029,135.7999725,
1.909166694,133.8733673,
1.910833359,134.2852783,
1.912500024,135.2277222,
1.914166689,134.7010345,
1.915833354,135.3708496,
1.917500019,134.8661652,
1.919166684,133.4783783,
1.920833349,134.633316,
1.922500014,135.3461456,
1.924166799,135.2383118,
1.925833344,135.3076477,
1.92750001,134.7711029,
1.929166675,135.217392,
1.93083334,134.4189758,
1.932500124,134.4625702,
1.93416667,134.3411713,
1.935833335,134.6576385,
1.9375,134.6703033,
1.939166665,134.6026306,
1.940833449,134.583252,
1.942499995,135.0132599,
1.94416666,134.4170837,
1.945833325,133.6819611,
1.94749999,133.7600555,
1.949166775,134.7784119,
1.95083344,133.1219177,
1.952499986,135.0537415,
1.954166651,133.907196,
1.955833316,134.5085754,
1.9575001,133.7600403,
1.959166765,134.3630676,
1.960833311,133.8432312,
1.962499976,134.2489319,
1.964166641,134.5206451,
1.965833426,134.2824707,
1.967500091,133.0944672,
1.969166636,134.0501556,
1.970833302,134.5589294,
1.972499967,134.5811768,
1.974166751,134.526062,
1.975833416,135.0121918,
1.977500081,133.594101,
1.979166627,135.100708,
1.980833292,134.587265,
1.982500076,133.4525146,
1.984166741,134.3599854,
1.985833406,134.6251526,
1.987499952,135.1191711,
1.989166617,136.0210571,
1.990833402,134.775116,
1.992500067,133.2724152,
1.994166732,133.9844818,
1.995833278,133.9019928,
1.997499943,134.6565094,
1.999166727,133.5036774,
2.000833273,134.4374237,
2.002500057,134.0602112,
2.004166603,134.5371399,
2.005833387,133.270813,
2.007500172,133.9382324,
2.009166718,133.6039581,
2.010833263,134.3533173,
2.012500048,133.5835266,
2.014166594,133.6425781,
2.015833378,134.2582397,
2.017500162,134.1409302,
2.019166708,134.438324,
2.020833254,134.4288177,
2.022500038,134.4818115,
2.024166822,133.2510529,
2.025833368,134.7782593,
2.027499914,134.8329468,
2.029166698,133.7305145,
2.030833244,135.026413,
2.032500029,134.7792053,
2.034166813,134.9442444,
2.035833359,135.1589813,
2.037499905,134.5130157,
2.039166689,134.1197968,
2.040833473,134.7510986,
2.042500019,133.5339813,
2.044166803,132.7942963,
2.045833349,134.2246552,
2.047499895,134.0547485,
2.049166679,134.3306732,
2.050833464,133.9249115,
2.05250001,133.3270111,
2.054166555,134.0705566,
2.05583334,133.8379974,
2.057500124,134.6200409,
2.05916667,133.3241425,
2.060833454,133.8512573,
2.0625,133.2206726,
2.064166546,133.7622375,
2.06583333,133.2915802,
2.067500114,133.0887604,
2.06916666,133.9574585,
2.070833445,134.4953461,
2.07249999,133.376709,
2.074166775,133.8249207,
2.075833321,133.5857239,
2.077500105,133.1987915,
2.079166651,133.4473419,
2.080833197,133.6680908,
2.082499981,133.5370483,
2.084166765,133.7724762,
2.085833311,132.72612,
2.087500095,134.4386749,
2.089166641,132.6343536,
2.090833426,133.4623108,
2.092499971,133.7483063,
2.094166756,133.7950287,
2.095833302,134.1617889,
2.097500086,133.3213501,
2.099166632,134.6723633,
2.100833416,134.0799866,
2.102499962,133.0881195,
2.104166746,132.1958313,
2.105833292,133.1977081,
2.107500076,133.6894531,
2.109166622,133.6257935,
2.110833406,133.8122101,
2.112499952,133.5712585,
2.114166737,134.2731171,
2.115833521,133.309433,
2.117500067,133.5054626,
2.119166613,134.3795929,
2.120833397,134.3435669,
2.122499943,132.5583954,
2.124166727,133.8975372,
2.125833273,133.1498108,
2.127500057,132.966156,
2.129166603,134.3162689,
2.130833387,133.079834,
2.132500172,134.0645142,
2.134166718,132.2737427,
2.135833502,133.3321381,
2.137500048,132.9396667,
2.139166832,133.3162689,
2.140833378,134.4359283,
2.142500162,134.6177673,
2.144166708,134.3782959,
2.145833254,133.2340698,
2.147500038,133.176239,
2.149166584,133.170105,
2.150833368,133.176239,
2.152500153,134.0624542,
2.154166698,134.0988007,
2.155833483,134.712326,
2.157500029,133.4961853,
2.159166813,133.2492371,
2.160833597,133.8848877,
2.162499905,132.8183899,
2.164166689,133.660965,
2.165833235,134.5436249,
2.167500019,133.1860809,
2.169166803,133.3380737,
2.170833349,133.5558929,
2.172500134,133.3618469,
2.174166679,132.6246338,
2.175833464,133.6917267,
2.177500248,133.0867004,
2.179166555,133.0400085,
2.18083334,132.7088318,
2.182499886,132.0751343,
2.18416667,133.6895752,
2.185833454,133.7424011,
2.1875,133.5711365,
2.189166784,132.3869476,
2.19083333,134.063797,
2.192500114,132.8649597,
2.194166899,132.8941803,
2.195833445,132.1785126,
2.19749999,132.8418884,
2.199166536,133.8474579,
2.200833321,133.4268341,
2.202500105,132.2812653,
2.204166651,133.6119537,
2.205833435,133.3846436,
2.207499981,132.7873688,
2.209166765,132.6111603,
2.210833549,133.8525085,
2.212500095,133.9167786,
2.21416688,132.4605865,
2.215833187,133.1765289,
2.217499971,133.8941193,
2.219166756,132.8244019,
2.220833302,133.4211731,
2.222500086,135.2840729,
2.224166632,132.4719086,
2.225833416,132.482132,
2.2275002,133.3757477,
2.229166746,133.6904755,
2.23083353,133.0624084,
2.232499838,132.9509277,
2.234166622,132.5446777,
2.235833406,133.5548859,
2.237499952,133.9443207,
2.239166737,134.5082245,
2.240833282,133.1761627,
2.242500067,133.4768829,
2.244166851,132.8354797,
2.245833397,132.4889679,
2.247500181,131.8748169,
2.249166727,133.9981079,
2.250833273,133.2313995,
2.252500057,132.4297485,
2.254166603,132.8759308,
2.255833387,132.6238708,
2.257499933,132.8270264,
2.259166718,133.5066681,
2.260833502,132.8237762,
2.262500048,132.5891418,
2.264166832,133.3305511,
2.265833378,132.9784698,
2.267500162,131.9987183,
2.269166708,133.1240845,
2.270833254,132.8777771,
2.272500038,132.9944916,
2.274166584,132.194397,
2.275833368,133.2671509,
2.277500153,133.4907227,
2.279166698,132.5908356,
2.280833483,132.4408569,
2.282500029,133.6054077,
2.284166813,132.1023254,
2.285833597,133.1457825,
2.287499905,132.5105133,
2.289166689,132.5222778,
2.290833235,132.8903656,
2.292500019,132.6226044,
2.294166803,132.3610382,
2.295833349,133.6031647,
2.297500134,132.025528,
2.299166679,131.4784698,
2.300833464,132.5632324,
2.302500248,132.816864,
2.304166555,132.5089417,
2.30583334,132.7351837,
2.307499886,132.1928864,
2.30916667,132.6761475,
2.310833454,132.9306183,
2.3125,133.0391083,
2.314166784,132.7070618,
2.31583333,132.0215454,
2.317500114,133.7861938,
2.319166899,133.126236,
2.320833445,133.6319427,
2.32249999,132.1401672,
2.324166536,132.6681824,
2.325833321,131.9004822,
2.327500105,132.1324158,
2.329166651,132.9392853,
2.330833435,132.7077637,
2.332499981,132.930191,
2.334166765,133.4053802,
2.335833549,133.1139832,
2.337500095,132.9840851,
2.33916688,132.6809235,
2.340833187,132.443161,
2.342499971,132.4732208,
2.344166756,132.1590271,
2.345833302,132.9673767,
2.347500086,132.2734833,
2.349166632,132.5404968,
2.350833416,132.8484955,
2.3525002,132.7259369,
2.354166746,132.8025818,
2.35583353,132.5135193,
2.357499838,133.3539886,
2.359166622,133.9407654,
2.360833406,132.7661133,
2.362499952,134.3569641,
2.364166737,131.6299286,
2.365833282,132.7327118,
2.367500067,132.4447327,
2.369166851,132.7918701,
2.370833397,132.2537231,
2.372500181,131.1317291,
2.374166727,131.7974091,
2.375833273,132.3731995,
2.377500057,131.6986694,
2.379166603,133.1838531,
2.380833387,133.2633667,
2.382499933,131.97966,
2.384166718,132.2278748,
2.385833502,131.6748047,
2.387500048,131.8185272,
2.389166832,133.1333771,
2.390833378,133.0185699,
2.392500162,132.3714142,
2.394166708,131.8397675,
2.395833254,132.9027863,
2.397500038,132.5312042,
2.399166584,131.4951782,
2.400833368,131.5419922,
2.402500153,132.0886841,
2.404166698,132.0182648,
2.405833483,132.3317261,
2.407500029,132.6775055,
2.409166813,131.8888702,
2.410833597,131.125061,
2.412499905,133.1925507,
2.414166689,132.0935211,
2.415833235,132.3355865,
2.417500019,132.3405151,
2.419166803,133.2371674,
2.420833349,132.1073151,
2.422500134,132.5916443,
2.424166679,133.4694366,
2.425833464,132.9117737,
2.427500248,132.2257843,
2.429166555,131.3457642,
2.43083334,132.9833221,
2.432499886,132.6652222,
2.43416667,132.8979492,
2.435833454,132.1134644,
2.4375,132.5637207,
2.439166784,132.1405945,
2.44083333,132.2373657,
2.442500114,133.015625,
2.444166899,132.5618439,
2.445833445,132.509613,
2.44749999,133.2853394,
2.449166536,133.2923737,
2.450833321,131.9978943,
2.452500105,133.1773682,
2.454166651,132.9107208,
2.455833435,132.6261597,
2.457499981,133.4335327,
2.459166765,133.3235474,
2.460833549,132.5676727,
2.462500095,132.6097107,
2.46416688,132.9542694,
2.465833187,132.2175903,
2.467499971,131.9824219,
2.469166756,133.0914612,
2.470833302,131.9881439,
2.472500086,131.8629913,
2.474166632,132.6907349,
2.475833416,132.0848083,
2.4775002,132.5189514,
2.479166746,131.2692871,
2.48083353,131.955719,
2.482499838,133.019455,
2.484166622,131.8829651,
2.485833406,132.5611267,
2.487499952,132.5792542,
2.489166737,132.8487091,
2.490833282,131.8474579,
2.492500067,131.914978,
2.494166851,131.9919434,
2.495833397,131.3279419,
2.497500181,132.9602051,
2.499166727,132.3366394,
2.500833273,131.6683655,
2.502500057,131.7444611,
2.504166603,130.7724152,
2.505833387,132.1170197,
2.507499933,131.7558441,
2.509166718,131.5932312,
2.510833502,132.7739105,
2.512500048,133.2376709,
2.514166832,132.4046783,
2.515833378,132.7382813,
2.517500162,132.0602112,
2.519166708,132.1375885,
2.520833254,131.7498016,
2.522500038,131.5211029,
2.524166584,131.5198212,
2.525833368,131.8331757,
2.527500153,133.0475006,
2.529166698,132.9966736,
2.530833483,132.5242157,
2.532500029,131.5955505,
2.534166813,131.1235046,
2.535833597,132.1587982,
2.537499905,132.0818634,
2.539166689,131.9498596,
2.540833235,131.9638214,
2.542500019,131.9061584,
2.544166803,132.4859009,
2.545833349,132.4403992,
2.547500134,132.1873932,
2.549166679,131.9729309,
2.550833464,131.8877869,
2.552500248,130.9766083,
2.554166555,132.0111847,
2.55583334,131.5888672,
2.557499886,132.7569275,
2.55916667,131.809845,
2.560833454,132.5336151,
2.5625,131.9410095,
2.564166784,131.3619385,
2.56583333,132.9412079,
2.567500114,132.1616974,
2.569166899,131.5630035,
2.570833445,131.520874,
2.57249999,131.7113342,
2.574166536,131.3548584,
2.575833321,132.4722748,
2.577500105,131.4068909,
2.579166651,131.6477814,
2.580833435,131.8962555,
2.582499981,131.5081177,
2.584166765,132.7555389,
2.585833549,132.4377136,
2.587500095,131.9012146,
2.58916688,132.1131592,
2.590833187,132.3035736,
2.592499971,132.4450378,
2.594166756,132.8366241,
2.595833302,132.9290771,
2.597500086,131.7578735,
2.599166632,130.443924,
2.600833416,131.6759338,
2.6025002,131.4630737,
2.604166746,131.7457886,
2.60583353,131.1997528,
2.607499838,132.3577118,
2.609166622,131.7617493,
2.610833406,131.3186188,
2.612499952,130.8646545,
2.614166737,131.3038177,
2.615833282,132.454071,
2.617500067,132.7791595,
2.619166851,131.5502014,
2.620833397,132.1971741,
2.622500181,131.5063629,
2.624166727,132.113327,
2.625833273,131.8719788,
2.627500057,131.9424286,
2.629166603,132.1413422,
2.630833387,132.3461609,
2.632499933,131.0470581,
2.634166718,132.880188,
2.635833502,131.6508179,
2.637500048,132.4892426,
2.639166832,131.730896,
2.640833378,132.3739471,
2.642500162,132.3290558,
2.644166708,131.9745636,
2.645833254,130.5628967,
2.647500038,131.3984528,
2.649166584,132.3201752,
2.650833368,132.6148071,
2.652500153,131.0437469,
2.654166698,130.9425049,
2.655833483,131.2101593,
2.657500029,132.5460815,
2.659166813,132.6580048,
2.660833597,131.6587372,
2.662499905,130.8565063,
2.664166689,131.7223206,
2.665833235,132.0491943,
2.667500019,131.0229187,
2.669166803,132.1490631,
2.670833349,131.8370819,
2.672500134,131.2193756,
2.674166679,132.2213287,
2.675833464,131.8796692,
2.677500248,131.6017151,
2.679166555,132.2920227,
2.68083334,130.3736877,
2.682499886,132.8574829,
2.68416667,131.6584778,
2.685833454,131.1466827,
2.6875,131.5320282,
2.689166784,131.5432739,
2.69083333,131.86203,
2.692500114,130.9247131,
2.694166899,131.9453125,
2.695833445,131.8017578,
2.69749999,133.3168945,
2.699166536,131.1976471,
2.700833321,133.2222595,
2.702500105,131.6616516,
2.704166651,132.3748779,
2.705833435,132.7668152,
2.707499981,131.3292694,
2.709166765,131.2787628,
2.710833549,131.8583069,
2.712500095,132.0032349,
2.71416688,130.749939,
2.715833187,132.5439911,
2.717499971,131.9015198,
2.719166756,132.3332062,
2.720833302,132.5658875,
2.722500086,130.5085144,
2.724166632,130.3546143,
2.725833416,131.7995605,
2.7275002,131.6368103,
2.729166746,132.9480133,
2.73083353,131.048645,
2.732499838,131.6633606,
2.734166622,131.3473663,
2.735833406,131.6812439,
2.737499952,130.592453,
2.739166737,132.3180695,
2.740833282,131.7778931,
2.742500067,131.585022,
2.744166851,131.0785828,
2.745833397,130.9508972,
2.747500181,132.0358887,
2.749166727,131.6312714,
2.750833273,131.3887024,
2.752500057,131.079422,
2.754166603,132.7774048,
2.755833387,132.4217224,
2.757499933,131.2521515,
2.759166718,131.6068726,
2.760833502,130.7241821,
2.762500048,131.5391846,
2.764166832,131.395752,
2.765833378,131.8124542,
2.767500162,132.2578888,
2.769166708,131.728363,
2.770833254,131.3536682,
2.772500038,131.8952332,
2.774166584,131.4122772,
2.775833368,131.8423157,
2.777500153,131.6235046,
2.779166698,130.8204346,
2.780833483,130.7744598,
2.782500029,132.5849915,
2.784166813,131.1683502,
2.785833597,132.2405853,
2.787499905,132.0299988,
2.789166689,131.0931854,
2.790833235,131.0978699,
2.792500019,130.4037933,
2.794166803,131.4130859,
2.795833349,131.9613953,
2.797500134,131.9381409,
2.799166679,131.3409576,
2.800833464,131.0962982,
2.802500248,132.0394897,
2.804166555,131.1045837,
2.80583334,131.1015015,
2.807499886,131.9627533,
2.80916667,132.884201,
2.810833454,130.6217194,
2.8125,130.732254,
2.814166784,131.6990204,
2.81583333,131.6044769,
2.817500114,131.6267548,
2.819166899,131.8443756,
2.820833445,131.7919312,
2.82249999,131.4577484,
2.824166536,131.1449432,
2.825833321,130.6777649,
2.827500105,131.0608826,
2.829166651,131.7053375,
2.830833435,131.3681488,
2.832499981,132.3686066,
2.834166765,130.576889,
2.835833549,131.8808746,
2.837500095,132.9377747,
2.83916688,131.1365051,
2.840833187,131.714447,
2.842499971,131.0669708,
2.844166756,132.0415649,
2.845833302,131.2810059,
2.847500086,131.5246277,
2.849166632,130.234024,
2.850833416,130.7309265,
2.8525002,132.8154755,
2.854166746,132.6284943,
2.85583353,130.6634674,
2.857499838,132.1725922,
2.859166622,131.0071106,
2.860833406,130.7968445,
2.862499952,131.5171356,
2.864166737,132.1809998,
2.865833282,131.6913757,
2.867500067,131.6638489,
2.869166851,131.3262177,
2.870833397,130.9080353,
2.872500181,131.5354919,
2.874166727,131.8383484,
2.875833273,131.5706635,
2.877500057,130.4747925,
2.879166603,132.0539551,
2.880833387,130.1173553,
2.882499933,132.2852783,
2.884166718,130.4675293,
2.885833502,131.7375031,
2.887500048,131.7806244,
2.889166832,132.1052399,
2.890833378,131.4699554,
2.892500162,131.14888,
2.894166708,132.9381409,
2.895833254,130.7268677,
2.897500038,130.7755432,
2.899166584,132.3230743,
2.900833368,130.8290405,
2.902500153,131.0110931,
2.904166698,131.1262207,
2.905833483,130.761322,
2.907500029,131.4682159,
2.909166813,131.2926941,
2.910833597,130.8430634,
2.912499905,130.4827271,
2.914166689,131.2806091,
2.915833235,131.1110992,
2.917500019,131.1382141,
2.919166803,130.8917389,
2.920833349,129.6739807,
2.922500134,131.8797607,
2.924166679,132.0979919,
2.925833464,131.95755,
2.927500248,131.0195465,
2.929166555,130.8440857,
2.93083334,129.9963074,
2.932499886,131.6618042,
2.93416667,132.3908081,
2.935833454,130.7224121,
2.9375,130.7817535,
2.939166784,130.7391357,
2.94083333,130.710022,
2.942500114,130.3516693,
2.944166899,131.1647034,
2.945833445,131.1372833,
2.94749999,131.2558746,
2.949166536,131.6928253,
2.950833321,132.0749207,
2.952500105,132.4300842,
2.954166651,130.8631134,
2.955833435,129.7538757,
2.957499981,130.9564056,
2.959166765,131.8681946,
2.960833549,132.0454559,
2.962500095,130.5088501,
2.96416688,131.2861328,
2.965833187,131.7304535,
2.967499971,131.0243683,
2.969166756,131.3639069,
2.970833302,130.7712708,
2.972500086,131.554306,
2.974166632,131.1408691,
2.975833416,129.9966583,
2.9775002,131.0599823,
2.979166746,130.9720154,
2.98083353,132.2580872,
2.982499838,131.0847626,
2.984166622,131.1879272,
2.985833406,130.9865265,
2.987499952,131.2568359,
2.989166737,131.4738617,
2.990833282,130.3130646,
2.992500067,130.1831055,
2.994166851,130.8375397,
2.995833397,130.7979889,
2.997500181,132.1215057,
2.999166727,131.3169098,
3.000833273,130.7550049,
3.002500057,130.7569122,
3.004166603,131.5851593,
3.005833387,131.272049,
3.007499933,130.7856293,
3.009166718,131.944931,
3.010833502,131.2547607,
3.012500048,132.3582306,
3.014166832,131.1589661,
3.015833378,131.3414917,
3.017500162,131.4164124,
3.019166708,131.1141663,
3.020833254,130.1616974,
3.022500038,131.934494,
3.024166584,131.354599,
3.025833368,131.6245728,
3.027500153,130.9647064,
3.029166698,131.3941956,
3.030833483,130.5707245,
3.032500029,130.1125336,
3.034166813,131.1838684,
3.035833597,130.6106262,
3.037499905,130.6583252,
3.039166689,131.1142731,
3.040833235,131.6947632,
3.042500019,130.795517,
3.044166803,131.4318695,
3.045833349,131.7770996,
3.047500134,130.4130249,
3.049166679,131.031723,
3.050833464,131.4732819,
3.052500248,130.6928711,
3.054166555,131.496933,
3.05583334,131.3147736,
3.057499886,131.299408,
3.05916667,131.0738373,
3.060833454,130.4969177,
3.0625,130.8759766,
3.064166784,130.5463867,
3.06583333,130.7878113,
3.067500114,131.0880432,
3.069166899,130.943161,
3.070833445,131.2503662,
3.07249999,129.7397766,
3.074166536,131.2626495,
3.075833321,130.7139893,
3.077500105,130.5917816,
3.079166651,131.2762146,
3.080833435,131.7771301,
3.082499981,131.4951019,
3.084166765,131.304718,
3.085833549,132.7193604,
3.087500095,131.9230957,
3.08916688,131.1950836,
3.090833187,131.1494598,
3.092499971,131.19487,
3.094166756,130.9404449,
3.095833302,130.5289917,
3.097500086,131.8173981,
3.099166632,132.0691986,
3.100833416,131.5803223,
3.1025002,131.6823425,
3.104166746,130.9335938,
3.10583353,130.4692078,
3.107499838,130.7486267,
3.109166622,131.8518219,
3.110833406,131.3697052,
3.112499952,131.0890045,
3.114166737,130.8434753,
3.115833282,130.9428101,
3.117500067,129.8892365,
3.119166851,130.2629395,
3.120833397,131.5251465,
3.122500181,131.1942444,
3.124166727,131.2542877,
3.125833273,131.0874634,
3.127500057,131.8128662,

