1,,
Time (min),Intensity (a.u.),
0.0008333333535,206.0996399,
0.002500000177,205.9478455,
0.004166666884,205.5072937,
0.005833333358,205.8113708,
0.007500000298,204.906601,
0.009166667238,205.7027435,
0.01083333418,205.9234161,
0.01250000019,205.2214661,
0.01416666713,205.9970551,
0.01583333313,205.2042084,
0.01750000194,207.1253662,
0.01916666701,205.1938629,
0.02083333395,206.5550537,
0.02250000089,207.0184784,
0.02416666783,204.7146606,
0.02583333477,205.8216553,
0.02749999985,206.350235,
0.02916666679,205.9435577,
0.03083333373,204.9042206,
0.03250000253,206.1227264,
0.03416666761,204.4049377,
0.03583333641,204.8983002,
0.03750000149,205.8743591,
0.03916667029,204.4127808,
0.04083333537,205.7912292,
0.04250000045,207.0730591,
0.04416666925,204.9522705,
0.04583333433,207.7171021,
0.04750000313,206.5244293,
0.04916666821,206.3878326,
0.05083333328,206.3789368,
0.05250000209,206.1194916,
0.05416666716,205.793045,
0.05583333597,206.2526398,
0.05750000104,206.1319733,
0.05916666612,205.0811768,
0.06083333492,206.0088348,
0.0625,205.173584,
0.06416667253,205.1996613,
0.0658333376,205.4669495,
0.06750000268,206.1095581,
0.06916666776,205.4117126,
0.07083333284,206.4346771,
0.07249999791,205.7703857,
0.07416667044,205.9173737,
0.07583333552,206.2966309,
0.0775000006,206.4034119,
0.07916666567,206.7013702,
0.08083333075,205.4796143,
0.08250000328,205.4629364,
0.08416666836,205.8409576,
0.08583333343,205.7679749,
0.08749999851,204.573822,
0.08916666359,205.8160248,
0.09083333611,205.851059,
0.09250000119,204.9993134,
0.09416666627,205.4489594,
0.09583333135,205.0270386,
0.09749999642,206.6543427,
0.09916666895,205.9805298,
0.100833334,204.6010132,
0.1024999991,205.1991272,
0.1041666642,205.281311,
0.1058333293,204.6758728,
0.1075000018,206.597702,
0.1091666669,206.3942413,
0.1108333319,206.0589142,
0.112499997,206.3351593,
0.1141666621,205.6363525,
0.1158333346,205.6212006,
0.1174999997,203.7391357,
0.1191666648,205.0288086,
0.1208333299,206.2688599,
0.1224999949,205.8849792,
0.1241666749,205.2901764,
0.1258333325,205.8229828,
0.1274999976,206.1078186,
0.1291666627,205.6937866,
0.1308333278,205.5059967,
0.1325000077,205.3166504,
0.1341666728,204.2183685,
0.1358333379,206.4687042,
0.137500003,206.5052795,
0.1391666681,206.5979614,
0.1408333331,205.4346924,
0.1424999982,205.0886536,
0.1441666782,205.5761871,
0.1458333284,205.5444336,
0.1475000083,205.9077606,
0.1491666585,204.5997009,
0.1508333385,206.2601013,
0.1525000036,205.0422821,
0.1541666687,204.8025055,
0.1558333337,205.2814789,
0.1574999988,204.6032104,
0.1591666639,205.4405365,
0.1608333439,205.5387421,
0.162499994,204.8136902,
0.164166674,205.4851074,
0.1658333242,205.5130615,
0.1675000042,204.8683472,
0.1691666692,205.0134277,
0.1708333343,206.4570313,
0.1724999994,205.1568298,
0.1741666645,206.2923279,
0.1758333296,205.355072,
0.1775000095,205.5520935,
0.1791666597,205.5633698,
0.1808333397,206.7088013,
0.1824999899,205.0932312,
0.1841666698,206.2518463,
0.1858333498,206.1468048,
0.1875,206.4705963,
0.18916668,205.2254639,
0.1908333302,205.2405243,
0.1925000101,206.6789856,
0.1941666752,205.7584534,
0.1958333403,204.5895691,
0.1975000054,203.8694153,
0.1991666704,205.2256165,
0.2008333355,203.7431641,
0.2025000155,205.8289337,
0.2041666657,204.9039459,
0.2058333457,204.9300232,
0.2074999958,205.7627563,
0.2091666758,206.0966797,
0.2108333409,205.6517639,
0.212500006,205.5434723,
0.214166671,204.9319305,
0.2158333361,204.8221893,
0.2175000012,206.6806335,
0.2191666812,205.0390625,
0.2208333313,205.4901428,
0.2225000113,205.5825806,
0.2241666615,204.8446503,
0.2258333415,204.7929688,
0.2275000066,206.897583,
0.2291666716,206.8321533,
0.2308333367,204.9015961,
0.2325000018,206.4519958,
0.2341666669,204.3707886,
0.2358333468,205.9243011,
0.237499997,206.0134125,
0.239166677,205.7665558,
0.2408333272,205.4020386,
0.2425000072,205.1755219,
0.2441666722,204.6693878,
0.2458333373,206.453476,
0.2475000024,206.1500092,
0.2491666675,205.3476868,
0.2508333325,205.0171204,
0.2524999976,205.9243317,
0.2541666627,204.687027,
0.2558333278,204.7516327,
0.2574999928,205.7342072,
0.2591666579,204.8929291,
0.2608333528,205.2958069,
0.2624999881,205.9161682,
0.264166683,206.1524506,
0.2658333182,205.9432678,
0.2675000131,205.0601501,
0.2691666484,206.3213959,
0.2708333433,205.4428101,
0.2725000083,205.2922363,
0.2741666734,204.8291626,
0.2758333385,205.5544281,
0.2775000036,207.3398438,
0.2791666687,205.6926575,
0.2808333337,206.2746124,
0.2824999988,205.1492004,
0.2841666937,205.7982025,
0.285833329,206.9025421,
0.287499994,206.1218414,
0.2891666591,204.3901062,
0.290833354,206.1837921,
0.2925000191,205.1364136,
0.2941666543,205.3694763,
0.2958333194,205.6156464,
0.2975000143,205.2980499,
0.2991666794,204.723175,
0.3008333445,206.2826843,
0.3024999797,205.5810242,
0.3041666746,204.3990631,
0.3058333397,205.0560303,
0.3075000048,205.3414612,
0.3091666996,204.5912018,
0.3108333349,206.0265656,
0.3125,204.875885,
0.3141666651,205.1685638,
0.31583336,205.3307648,
0.317500025,206.432373,
0.3191666603,205.9347076,
0.3208333254,206.1453705,
0.3225000203,206.6172943,
0.3241666853,205.5246735,
0.3258333504,206.0995789,
0.3274999857,204.0755157,
0.3291666806,204.7093048,
0.3308333457,204.0688019,
0.3325000107,205.2044678,
0.3341666758,206.1997375,
0.3358333409,205.0954132,
0.337500006,204.9924469,
0.339166671,205.5328979,
0.3408333361,204.770874,
0.342500031,204.4663391,
0.3441666663,204.198288,
0.3458333313,205.6173096,
0.3474999964,205.4009705,
0.3491666913,205.6413269,
0.3508333564,204.3104248,
0.3524999917,204.9273682,
0.3541666567,205.7787933,
0.3558333516,206.8491821,
0.3575000167,204.6138,
0.3591666818,205.2344208,
0.360833317,206.0370331,
0.3625000119,206.4896851,
0.364166677,205.4915924,
0.3658333421,205.5466614,
0.3675000072,205.4160919,
0.3691666722,205.2021027,
0.3708333373,206.8469238,
0.3725000024,205.2253265,
0.3741666675,206.7348328,
0.3758333623,206.1877747,
0.3774999976,206.3864136,
0.3791666627,206.1094666,
0.3808333278,205.2607117,
0.3825000226,206.5052795,
0.3841666877,206.2509003,
0.385833323,204.9025421,
0.3874999881,205.0062866,
0.389166683,206.6895599,
0.390833348,206.4335022,
0.3925000131,204.7145691,
0.3941666484,205.3551331,
0.3958333433,205.8161469,
0.3975000083,206.1338501,
0.3991666734,205.3714752,
0.4008333385,205.0370789,
0.4025000036,205.2272186,
0.4041666687,205.4303131,
0.4058333337,207.0826569,
0.4074999988,204.9649353,
0.4091666937,204.5603027,
0.410833329,205.6185455,
0.412499994,206.2228546,
0.4141666591,205.1694794,
0.415833354,204.753952,
0.4175000191,206.0393372,
0.4191666543,205.7846222,
0.4208333194,204.774231,
0.4225000143,206.4187469,
0.4241666794,205.4109497,
0.4258333445,205.9949493,
0.4274999797,206.3790436,
0.4291666746,206.4143372,
0.4308333397,206.1126709,
0.4325000048,204.7978516,
0.4341666996,206.4226227,
0.4358333349,205.085907,
0.4375,207.0455475,
0.4391666651,205.5864105,
0.44083336,204.8465729,
0.442500025,206.2838898,
0.4441666603,205.091095,
0.4458333254,205.57164,
0.4475000203,205.8719025,
0.4491666853,206.7104645,
0.4508333504,206.0099182,
0.4524999857,203.7861633,
0.4541666806,206.2062683,
0.4558333457,207.1365051,
0.4575000107,206.7387695,
0.4591666758,206.3520203,
0.4608333409,204.8965912,
0.462500006,205.9063263,
0.464166671,203.9794464,
0.4658333361,205.6076355,
0.467500031,204.7134247,
0.4691666663,204.9056549,
0.4708333313,204.1613922,
0.4724999964,204.58078,
0.4741666913,206.0947876,
0.4758333564,206.2998657,
0.4774999917,206.3338623,
0.4791666567,205.2125549,
0.4808333516,204.8333435,
0.4825000167,206.2882233,
0.4841666818,205.7145996,
0.485833317,203.9772339,
0.4875000119,205.4145355,
0.489166677,204.9419708,
0.4908333421,204.2010498,
0.4925000072,205.0462036,
0.4941666722,206.0453644,
0.4958333373,206.536972,
0.4975000024,205.2569427,
0.4991666675,204.8202362,
0.5008333325,206.1306915,
0.5024999976,205.6488953,
0.5041666627,204.6291046,
0.5058333278,207.3388367,
0.5074999928,207.0622101,
0.5091666579,205.173584,
0.510833323,205.2676392,
0.5124999881,205.4938354,
0.5141666532,205.7393951,
0.5158333182,205.159317,
0.5175000429,205.7205658,
0.5191666484,206.0270081,
0.5208333135,205.1638489,
0.5224999785,205.3052063,
0.5241667032,205.7375946,
0.5258333683,204.7993774,
0.5274999738,206.1510468,
0.5291666389,205.9529419,
0.5308333635,206.7534637,
0.5325000286,205.7372742,
0.5341666341,206.898819,
0.5358333588,204.5773468,
0.5375000238,203.222168,
0.5391666889,206.0829773,
0.540833354,203.7306519,
0.5424999595,204.9153442,
0.5441666842,206.2433624,
0.5458333492,205.9426575,
0.5475000143,204.4330902,
0.5491666794,206.0584412,
0.5508333445,205.9344177,
0.5525000095,206.1780548,
0.5541666746,205.2167816,
0.5558333993,205.4918976,
0.5575000048,204.619278,
0.5591666698,206.2449036,
0.5608333349,204.5890503,
0.5625,206.0895691,
0.5641667247,206.1678619,
0.5658333302,206.6888275,
0.5674999952,206.0072021,
0.5691667199,205.3183899,
0.5708333254,205.8755646,
0.5725000501,204.95224,
0.5741666555,205.6311646,
0.5758333206,204.8073425,
0.5775000453,205.7552795,
0.5791666508,205.4335632,
0.5808333755,205.4121094,
0.5825000405,205.9245148,
0.584166646,204.7171936,
0.5858333707,205.9210968,
0.5874999762,204.8166199,
0.5891667008,204.4766693,
0.5908333659,204.8620453,
0.5924999714,205.5563202,
0.5941666961,206.0050659,
0.5958333611,205.9912415,
0.5975000262,205.1301727,
0.5991666913,205.288681,
0.6008332968,206.3954468,
0.6025000215,205.1048889,
0.6041666865,205.6634979,
0.6058333516,205.4536133,
0.6075000167,204.3157654,
0.6091666818,205.9594421,
0.6108333468,204.6317749,
0.6125000119,203.7598572,
0.614166677,205.7414551,
0.6158333421,205.2984772,
0.6175000072,205.5617981,
0.6191666722,206.2809296,
0.6208333373,205.6123047,
0.622500062,206.6126099,
0.6241666675,206.0348053,
0.6258333325,205.1779327,
0.6274999976,206.6906281,
0.6291666627,206.2356262,
0.6308333874,206.794632,
0.6324999928,206.5345917,
0.6341666579,206.9094391,
0.6358333826,205.5576782,
0.6374999881,205.1702271,
0.6391667128,205.9863892,
0.6408333182,204.9533997,
0.6424999833,206.3887329,
0.644166708,206.3724823,
0.6458333135,205.1628265,
0.6475000381,204.1955109,
0.6491667032,206.0988312,
0.6508333087,206.0079346,
0.6525000334,206.0705414,
0.6541666389,206.5586548,
0.6558333635,205.2873383,
0.6575000286,205.427475,
0.6591666341,205.6416473,
0.6608333588,206.2322845,
0.6625000238,206.0178375,
0.6641666889,205.4733429,
0.665833354,205.8428345,
0.6674999595,205.3269501,
0.6691666842,205.2403259,
0.6708333492,204.9428711,
0.6725000143,204.9772797,
0.6741666794,205.487915,
0.6758333445,205.8553467,
0.6775000095,206.2103577,
0.6791666746,205.4276733,
0.6808333993,205.1362,
0.6825000048,205.2714539,
0.6841666698,205.6036835,
0.6858333349,204.9316406,
0.6875,205.1682892,
0.6891667247,205.5029602,
0.6908333302,206.3395538,
0.6924999952,205.1983032,
0.6941667199,205.1063843,
0.6958333254,205.3305817,
0.6975000501,203.9694672,
0.6991666555,205.5797272,
0.7008333206,205.0453339,
0.7025000453,206.5453339,
0.7041666508,206.529129,
0.7058333755,205.1656952,
0.7075000405,205.9202118,
0.709166646,203.3509216,
0.7108333707,206.5412292,
0.7124999762,206.4884796,
0.7141667008,206.0031586,
0.7158333659,205.161087,
0.7174999714,204.7745667,
0.7191666961,204.1819916,
0.7208333611,205.9334106,
0.7225000262,205.4498596,
0.7241666913,205.3989105,
0.7258332968,205.9378357,
0.7275000215,205.8629456,
0.7291666865,204.9705353,
0.7308333516,205.7601166,
0.7325000167,205.8748322,
0.7341666818,205.0837402,
0.7358333468,205.5944672,
0.7375000119,205.2438965,
0.739166677,205.7143097,
0.7408333421,206.5623932,
0.7425000072,206.3160248,
0.7441666722,204.4757538,
0.7458333373,205.7361298,
0.747500062,206.3272858,
0.7491666675,205.8136444,
0.7508333325,206.574234,
0.7524999976,206.735199,
0.7541666627,205.0069427,
0.7558333874,206.0782166,
0.7574999928,205.9097748,
0.7591666579,204.17836,
0.7608333826,204.6807098,
0.7624999881,205.4478302,
0.7641667128,206.4555359,
0.7658333182,206.2578735,
0.7674999833,206.0182495,
0.769166708,205.0625458,
0.7708333135,205.3301086,
0.7725000381,205.9511566,
0.7741667032,206.1830292,
0.7758333087,205.7811127,
0.7775000334,205.664093,
0.7791666389,204.7566528,
0.7808333635,205.9425201,
0.7825000286,206.4203644,
0.7841666341,206.1195526,
0.7858333588,205.9689789,
0.7875000238,205.096405,
0.7891666889,206.9110413,
0.790833354,205.6875763,
0.7924999595,204.7913666,
0.7941666842,205.6652679,
0.7958333492,207.239502,
0.7975000143,206.0927429,
0.7991666794,205.4118347,
0.8008333445,205.3933105,
0.8025000095,205.6180267,
0.8041666746,205.85672,
0.8058333993,205.9792786,
0.8075000048,205.3422546,
0.8091666698,205.3493652,
0.8108333349,205.8892059,
0.8125,204.7814484,
0.8141667247,204.816803,
0.8158333302,205.8406219,
0.8174999952,204.6418762,
0.8191667199,203.8517761,
0.8208333254,205.4417877,
0.8225000501,205.72258,
0.8241666555,205.5802155,
0.8258333206,205.3546448,
0.8275000453,204.8414154,
0.8291666508,206.6168823,
0.8308333755,206.0247192,
0.8325000405,205.7132874,
0.834166646,204.1469269,
0.8358333707,206.0094604,
0.8374999762,205.217392,
0.8391667008,205.6813812,
0.8408333659,204.0941772,
0.8424999714,204.6927338,
0.8441666961,206.0097198,
0.8458333611,206.4334564,
0.8475000262,205.5553131,
0.8491666913,205.6795654,
0.8508332968,204.8574677,
0.8525000215,205.7377472,
0.8541666865,205.8509064,
0.8558333516,205.7238007,
0.8575000167,204.9160767,
0.8591666818,204.8920898,
0.8608333468,205.7910614,
0.8625000119,205.831604,
0.864166677,205.9260559,
0.8658333421,205.6880798,
0.8675000072,204.9922333,
0.8691666722,205.0762634,
0.8708333373,206.6630859,
0.872500062,205.1422577,
0.8741666675,206.4707642,
0.8758333325,206.1993408,
0.8774999976,204.999939,
0.8791666627,205.252594,
0.8808333874,205.7759247,
0.8824999928,205.1333618,
0.8841666579,205.1571045,
0.8858333826,205.7011414,
0.8874999881,204.9102173,
0.8891667128,206.7019806,
0.8908333182,204.4466705,
0.8924999833,205.7612762,
0.894166708,205.6291656,
0.8958333135,205.9505005,
0.8975000381,206.8398895,
0.8991667032,205.921402,
0.9008333087,206.4064636,
0.9025000334,204.6294861,
0.9041666389,204.1638184,
0.9058333635,206.0702362,
0.9075000286,205.5084839,
0.9091666341,204.6960907,
0.9108333588,205.5527039,
0.9125000238,205.1883698,
0.9141666889,204.5340118,
0.915833354,206.1630554,
0.9174999595,204.4536133,
0.9191666842,206.1627197,
0.9208333492,207.184967,
0.9225000143,205.9677124,
0.9241666794,208.1028595,
0.9258333445,205.6458435,
0.9275000095,204.4424133,
0.9291666746,205.410675,
0.9308333993,205.84935,
0.9325000048,205.9418793,
0.9341666698,205.413147,
0.9358333349,206.729126,
0.9375,205.3665466,
0.9391667247,206.2544708,
0.9408333302,205.1865845,
0.9424999952,205.7676239,
0.9441667199,206.3331909,
0.9458333254,204.2141571,
0.9475000501,205.4794617,
0.9491666555,205.7589569,
0.9508333206,205.7980347,
0.9525000453,204.5647888,
0.9541666508,205.4191895,
0.9558333755,205.1071625,
0.9575000405,206.6773071,
0.959166646,205.5568542,
0.9608333707,205.285141,
0.9624999762,205.7380066,
0.9641667008,205.7516479,
0.9658333659,205.9458771,
0.9674999714,205.601059,
0.9691666961,205.4484863,
0.9708333611,205.811615,
0.9725000262,205.7982483,
0.9741666913,205.0656891,
0.9758332968,206.3028259,
0.9775000215,205.6365509,
0.9791666865,204.9780731,
0.9808333516,204.9718018,
0.9825000167,205.0371857,
0.9841666818,204.7810211,
0.9858333468,206.1754913,
0.9875000119,205.9314423,
0.989166677,206.3190155,
0.9908333421,204.0011292,
0.9925000072,206.2439728,
0.9941666722,205.0728149,
0.9958333373,205.4957581,
0.997500062,206.8959351,
0.9991666675,205.8710785,
1.000833273,205.6346436,
1.002500057,207.7747955,
1.004166722,206.0219574,
1.005833387,205.4115906,
1.007500052,205.5730286,
1.009166598,206.0885468,
1.010833383,207.2615051,
1.012500048,206.6088867,
1.014166713,204.5142059,
1.015833378,205.6522064,
1.017500043,204.4969482,
1.019166708,206.6253052,
1.020833373,205.6340179,
1.022500038,204.2758331,
1.024166703,205.9475861,
1.025833368,207.2323761,
1.027500033,206.9895782,
1.029166698,204.5148163,
1.030833364,206.2500458,
1.032500029,180.9755402,
1.034166694,173.8626862,
1.035833359,168.2234955,
1.037500024,171.0053558,
1.039166689,181.5829773,
1.040833354,187.4777832,
1.042500019,184.2289429,
1.044166684,183.723053,
1.045833349,184.857132,
1.047500014,183.2297058,
1.049166679,182.6130219,
1.050833344,186.6988831,
1.05250001,186.9322662,
1.054166675,167.8030853,
1.05583334,170.3990936,
1.057500005,157.212326,
1.05916667,162.4755707,
1.060833335,155.0428009,
1.0625,165.65065,
1.064166665,166.5425262,
1.06583333,167.4812622,
1.067499995,166.1114044,
1.06916666,161.0819702,
1.070833325,161.8567352,
1.07249999,157.3749084,
1.074166775,159.5371857,
1.07583344,159.721344,
1.077499986,155.1147614,
1.079166651,151.6173859,
1.080833316,143.0398865,
1.0825001,162.0853729,
1.084166765,168.1072693,
1.085833311,164.9942017,
1.087499976,166.2108154,
1.089166641,165.9005737,
1.090833426,164.2434692,
1.092500091,162.9476318,
1.094166636,162.664505,
1.095833302,160.4237366,
1.097499967,159.2277985,
1.099166751,159.5109711,
1.100833416,157.6029053,
1.102500081,158.4442902,
1.104166627,157.0355988,
1.105833292,156.8649597,
1.107500076,155.2178802,
1.109166741,154.7161102,
1.110833406,153.1072235,
1.112499952,153.2649384,
1.114166617,152.7829132,
1.115833402,153.7864227,
1.117500067,150.2620087,
1.119166732,150.4818268,
1.120833278,149.7541351,
1.122499943,151.1668854,
1.124166727,148.4470367,
1.125833392,148.0513611,
1.127500057,147.7102661,
1.129166722,145.9858704,
1.130833268,146.9341888,
1.132500052,146.4355927,
1.134166718,145.3886108,
1.135833383,144.8838043,
1.137500048,145.2885742,
1.139166594,143.6273804,
1.140833378,144.2753601,
1.142500043,142.6428375,
1.144166708,143.1514893,
1.145833373,142.8210754,
1.147499919,141.7738495,
1.149166703,141.7239838,
1.150833368,141.5319519,
1.152500033,140.395401,
1.154166698,141.5175629,
1.155833364,140.5080566,
1.157500029,140.4251709,
1.159166694,139.7538757,
1.160833359,139.5725098,
1.162500024,139.1337433,
1.164166689,139.2992859,
1.165833354,138.8248291,
1.167500019,137.2511749,
1.169166684,137.9494019,
1.170833349,137.4602203,
1.172500014,137.7344513,
1.174166799,137.8994293,
1.175833344,137.0267944,
1.17750001,136.3407593,
1.179166675,137.7321625,
1.18083334,136.8162231,
1.182500124,135.5313416,
1.18416667,135.9973755,
1.185833335,135.8494263,
1.1875,135.7457123,
1.189166665,135.072403,
1.190833449,134.5885162,
1.192499995,133.9495392,
1.19416666,135.4415894,
1.195833325,135.1736755,
1.19749999,134.4210815,
1.199166775,133.2000732,
1.20083344,134.3822784,
1.202499986,131.8993073,
1.204166651,132.6661224,
1.205833316,133.7766418,
1.2075001,133.5791016,
1.209166765,133.4480286,
1.210833311,131.8251343,
1.212499976,132.4092407,
1.214166641,130.9438934,
1.215833426,131.2918701,
1.217500091,131.2230682,
1.219166636,131.3890533,
1.220833302,131.164856,
1.222499967,130.3511658,
1.224166751,130.7536469,
1.225833416,130.4100342,
1.227500081,131.1381683,
1.229166627,129.8735962,
1.230833292,129.2197266,
1.232500076,130.9877167,
1.234166741,130.2325592,
1.235833406,129.9367371,
1.237499952,129.7295685,
1.239166617,130.4790039,
1.240833402,128.6646118,
1.242500067,130.0588226,
1.244166732,129.0719452,
1.245833278,128.5580139,
1.247499943,129.2227783,
1.249166727,128.6907196,
1.250833392,128.7692261,
1.252500057,127.649498,
1.254166722,127.5776749,
1.255833268,127.1535568,
1.257500052,127.827034,
1.259166718,127.8579712,
1.260833383,127.8923569,
1.262500048,128.1772766,
1.264166594,127.4742203,
1.265833378,126.1129684,
1.267500043,127.4506912,
1.269166708,126.0369415,
1.270833373,127.5268478,
1.272499919,126.9159012,
1.274166703,126.7786942,
1.275833368,126.8231888,
1.277500033,126.5792847,
1.279166698,125.7527771,
1.280833364,127.033638,
1.282500029,124.5653992,
1.284166694,125.6012039,
1.285833359,125.5594025,
1.287500024,126.4009323,
1.289166689,125.2918091,
1.290833354,125.0059433,
1.292500019,125.2769699,
1.294166684,125.6808929,
1.295833349,124.2872391,
1.297500014,125.8384552,
1.299166799,126.5177841,
1.300833344,125.253006,
1.30250001,124.5103989,
1.304166675,124.7321625,
1.30583334,125.1680222,
1.307500124,124.6807251,
1.30916667,124.1497879,
1.310833335,124.2655716,
1.3125,123.9102402,
1.314166665,124.3078537,
1.315833449,125.2561493,
1.317499995,124.1510239,
1.31916666,123.6293106,
1.320833325,123.8204498,
1.32249999,123.6060791,
1.324166775,124.3224792,
1.32583344,123.7830811,
1.327499986,123.0839081,
1.329166651,123.8398361,
1.330833316,124.3605118,
1.3325001,122.8572464,
1.334166765,123.7471161,
1.335833311,123.9360428,
1.337499976,123.3895569,
1.339166641,123.2043915,
1.340833426,122.3947678,
1.342500091,123.724823,
1.344166636,123.3910065,
1.345833302,122.0027695,
1.347499967,123.3684006,
1.349166751,122.73246,
1.350833416,123.480629,
1.352500081,122.4547577,
1.354166627,122.7807007,
1.355833292,123.2286453,
1.357500076,122.882637,
1.359166741,122.4530716,
1.360833406,121.7277603,
1.362499952,121.9458847,
1.364166617,121.8386154,
1.365833402,121.6399231,
1.367500067,122.3439484,
1.369166732,120.8618088,
1.370833278,120.9550781,
1.372499943,120.8223495,
1.374166727,122.0334549,
1.375833392,121.4763031,
1.377500057,121.3273392,
1.379166722,121.658493,
1.380833268,121.172081,
1.382500052,121.6067734,
1.384166718,121.7999496,
1.385833383,121.2039795,
1.387500048,121.9418564,
1.389166594,120.4571991,
1.390833378,120.9823837,
1.392500043,121.1723175,
1.394166708,120.0279541,
1.395833373,120.6634369,
1.397499919,121.4840927,
1.399166703,121.1532822,
1.400833368,120.9267578,
1.402500033,122.0237732,
1.404166698,120.4963379,
1.405833364,119.327301,
1.407500029,120.299614,
1.409166694,120.8689499,
1.410833359,120.5889359,
1.412500024,121.7368164,
1.414166689,121.4575195,
1.415833354,120.148262,
1.417500019,119.330307,
1.419166684,120.8456345,
1.420833349,120.1613693,
1.422500014,119.5284805,
1.424166799,119.7509766,
1.425833344,120.9898529,
1.42750001,119.3472443,
1.429166675,120.439537,
1.43083334,120.0308762,
1.432500124,121.4033432,
1.43416667,119.9487152,
1.435833335,120.1034927,
1.4375,120.7279282,
1.439166665,119.5916061,
1.440833449,119.8584442,
1.442499995,119.4430237,
1.44416666,119.7920685,
1.445833325,119.0075378,
1.44749999,120.7614899,
1.449166775,119.9263992,
1.45083344,119.7445297,
1.452499986,119.7775421,
1.454166651,120.1202621,
1.455833316,119.5558472,
1.4575001,119.4049759,
1.459166765,118.7220154,
1.460833311,118.3405762,
1.462499976,118.6541061,
1.464166641,119.5731049,
1.465833426,118.3864212,
1.467500091,119.4348221,
1.469166636,119.3215103,
1.470833302,119.3379974,
1.472499967,119.4042664,
1.474166751,117.6674728,
1.475833416,119.7644806,
1.477500081,118.2712555,
1.479166627,118.775238,
1.480833292,118.907135,
1.482500076,118.395752,
1.484166741,119.4731369,
1.485833406,117.079567,
1.487499952,118.3553162,
1.489166617,118.6127014,
1.490833402,119.280838,
1.492500067,118.1730347,
1.494166732,118.636734,
1.495833278,118.714241,
1.497499943,117.517807,
1.499166727,118.8998032,
1.500833392,119.2334213,
1.502500057,118.0682068,
1.504166722,117.3823318,
1.505833268,117.3901596,
1.507500052,118.6297302,
1.509166718,118.1623688,
1.510833383,118.6885681,
1.512500048,117.2665634,
1.514166594,117.2537842,
1.515833378,118.7251511,
1.517500043,118.0889664,
1.519166708,118.327301,
1.520833373,118.1974106,
1.522499919,117.2314377,
1.524166703,118.3612366,
1.525833368,117.3249359,
1.527500033,117.3109436,
1.529166698,118.0704346,
1.530833364,117.4739304,
1.532500029,117.7178116,
1.534166694,117.8893127,
1.535833359,119.1159744,
1.537500024,118.1060638,
1.539166689,118.478157,
1.540833354,118.0102005,
1.542500019,117.5189362,
1.544166684,117.1592789,
1.545833349,116.5439148,
1.547500014,117.9188538,
1.549166799,117.1163101,
1.550833344,116.9724274,
1.55250001,116.9108734,
1.554166675,116.4255219,
1.55583334,117.4623642,
1.557500124,116.5924149,
1.55916667,118.3942642,
1.560833335,117.5013351,
1.5625,117.5428543,
1.564166665,116.6487198,
1.565833449,116.5957565,
1.567499995,116.4259949,
1.56916666,116.5693436,
1.570833325,117.0192337,
1.57249999,116.866394,
1.574166775,117.8282318,
1.57583344,116.3911362,
1.577499986,116.6935349,
1.579166651,117.6324005,
1.580833316,117.7983398,
1.5825001,116.9728851,
1.584166765,117.3726807,
1.585833311,117.2743759,
1.587499976,117.8427887,
1.589166641,116.8043823,
1.590833426,117.7726059,
1.592500091,117.0196228,
1.594166636,116.3054352,
1.595833302,117.3782043,
1.597499967,116.1893311,
1.599166751,116.5515137,
1.600833416,116.1560516,
1.602500081,116.7526779,
1.604166627,116.2087784,
1.605833292,116.6488266,
1.607500076,116.9495544,
1.609166741,116.4854889,
1.610833406,117.023819,
1.612499952,115.7651672,
1.614166617,117.7260284,
1.615833402,116.4962616,
1.617500067,116.1844864,
1.619166732,116.7233963,
1.620833278,117.023613,
1.622499943,116.3288727,
1.624166727,115.5807114,
1.625833392,116.5543213,
1.627500057,116.1820602,
1.629166722,115.4471741,
1.630833268,115.959938,
1.632500052,116.4687119,
1.634166718,115.8837967,
1.635833383,115.6306381,
1.637500048,116.6391068,
1.639166594,116.042366,
1.640833378,116.1116104,
1.642500043,115.5537262,
1.644166708,116.8788376,
1.645833373,116.1501389,
1.647499919,116.0532608,
1.649166703,115.8142395,
1.650833368,115.9486847,
1.652500033,115.2665634,
1.654166698,114.9016495,
1.655833364,115.3920517,
1.657500029,116.0883408,
1.659166694,117.0055847,
1.660833359,116.2770004,
1.662500024,116.1467743,
1.664166689,115.5217056,
1.665833354,116.1124649,
1.667500019,115.6319733,
1.669166684,115.0223465,
1.670833349,116.1743164,
1.672500014,115.1996078,
1.674166799,117.4984894,
1.675833344,115.6954575,
1.67750001,115.8557739,
1.679166675,115.0853424,
1.68083334,115.7116013,
1.682500124,115.2561111,
1.68416667,115.6002045,
1.685833335,115.6515503,
1.6875,115.4866562,
1.689166665,115.4053574,
1.690833449,114.9189987,
1.692499995,115.2874603,
1.69416666,115.1002502,
1.695833325,115.7843475,
1.69749999,115.9508667,
1.699166775,115.0423126,
1.70083344,115.0708542,
1.702499986,115.4322662,
1.704166651,114.6119308,
1.705833316,115.0563583,
1.7075001,115.6125183,
1.709166765,115.0607758,
1.710833311,115.3960495,
1.712499976,116.3745499,
1.714166641,114.4060593,
1.715833426,115.7774734,
1.717500091,114.6739349,
1.719166636,116.0166779,
1.720833302,115.8410187,
1.722499967,114.790741,
1.724166751,115.5289001,
1.725833416,115.7093582,
1.727500081,114.5682755,
1.729166627,116.1291885,
1.730833292,114.9051743,
1.732500076,116.2026672,
1.734166741,115.1743927,
1.735833406,115.0804443,
1.737499952,114.0045624,
1.739166617,114.9129715,
1.740833402,115.653801,
1.742500067,115.1923523,
1.744166732,115.2636032,
1.745833278,115.554245,
1.747499943,114.6509781,
1.749166727,115.267746,
1.750833392,115.5574799,
1.752500057,115.815712,
1.754166722,114.7545853,
1.755833268,115.5568924,
1.757500052,115.2797852,
1.759166718,114.5313339,
1.760833383,114.3765793,
1.762500048,115.9038086,
1.764166594,114.2687531,
1.765833378,115.1640015,
1.767500043,114.5916367,
1.769166708,114.0205688,
1.770833373,114.9104996,
1.772499919,114.7973099,
1.774166703,115.5870361,
1.775833368,115.3074341,
1.777500033,116.4008713,
1.779166698,114.777504,
1.780833364,114.7556458,
1.782500029,114.1572266,
1.784166694,114.8663483,
1.785833359,114.7361374,
1.787500024,114.9338226,
1.789166689,115.6531754,
1.790833354,114.6442871,
1.792500019,114.5571365,
1.794166684,114.2670441,
1.795833349,113.6607666,
1.797500014,115.6267242,
1.799166799,113.8879166,
1.800833344,114.0541382,
1.80250001,113.7080994,
1.804166675,114.0034714,
1.80583334,114.3657379,
1.807500124,114.0186691,
1.80916667,115.102211,
1.810833335,114.7635345,
1.8125,113.8086395,
1.814166665,114.4461288,
1.815833449,114.2585602,
1.817499995,113.7114487,
1.81916666,114.072998,
1.820833325,113.903862,
1.82249999,114.2517624,
1.824166775,114.6692429,
1.82583344,113.3891144,
1.827499986,114.4395523,
1.829166651,114.3478699,
1.830833316,115.0542374,
1.8325001,113.7521667,
1.834166765,114.7800217,
1.835833311,114.2597809,
1.837499976,113.7027054,
1.839166641,114.352478,
1.840833426,114.4716492,
1.842500091,113.6243744,
1.844166636,113.371666,
1.845833302,114.4102249,
1.847499967,115.0103531,
1.849166751,114.9704437,
1.850833416,113.9104462,
1.852500081,113.9474792,
1.854166627,115.1597061,
1.855833292,113.1212234,
1.857500076,114.3283997,
1.859166741,113.8737946,
1.860833406,113.3695755,
1.862499952,113.9861679,
1.864166617,113.5106659,
1.865833402,114.0541077,
1.867500067,114.2092896,
1.869166732,113.996521,
1.870833278,113.3021545,
1.872499943,114.0487976,
1.874166727,113.6944504,
1.875833392,114.7181625,
1.877500057,113.9889297,
1.879166722,114.4353561,
1.880833268,113.8772888,
1.882500052,114.7958679,
1.884166718,113.8827515,
1.885833383,113.6900864,
1.887500048,113.9924011,
1.889166594,114.3117523,
1.890833378,113.539856,
1.892500043,113.914566,
1.894166708,113.4348907,
1.895833373,113.9187012,
1.897499919,113.2186661,
1.899166703,113.2064209,
1.900833368,114.7498093,
1.902500033,113.2267151,
1.904166698,113.5467682,
1.905833364,113.741127,
1.907500029,114.1756897,
1.909166694,114.1174698,
1.910833359,114.3380356,
1.912500024,113.4753036,
1.914166689,114.0888519,
1.915833354,114.3029251,
1.917500019,115.0021896,
1.919166684,113.4186554,
1.920833349,114.2280655,
1.922500014,113.9926758,
1.924166799,113.4462357,
1.925833344,112.4692459,
1.92750001,114.4531174,
1.929166675,113.414032,
1.93083334,113.5369644,
1.932500124,113.5367126,
1.93416667,114.1411438,
1.935833335,112.770607,
1.9375,115.1081772,
1.939166665,112.706543,
1.940833449,114.0757904,
1.942499995,113.9669266,
1.94416666,113.3070297,
1.945833325,113.5490417,
1.94749999,114.6971436,
1.949166775,113.0372009,
1.95083344,112.5599442,
1.952499986,113.2689362,
1.954166651,112.4909744,
1.955833316,112.4764786,
1.9575001,114.588295,
1.959166765,112.4725189,
1.960833311,113.333374,
1.962499976,114.1049728,
1.964166641,113.2727051,
1.965833426,113.3674622,
1.967500091,114.3822021,
1.969166636,114.5143967,
1.970833302,113.5139389,
1.972499967,113.863739,
1.974166751,114.1698837,
1.975833416,112.688179,
1.977500081,112.6971436,
1.979166627,113.7027817,
1.980833292,113.6181564,
1.982500076,112.9217758,
1.984166741,114.7217941,
1.985833406,114.0660629,
1.987499952,113.8269501,
1.989166617,113.2051849,
1.990833402,113.9663391,
1.992500067,113.8002472,
1.994166732,114.2535172,
1.995833278,112.200798,
1.997499943,112.8560715,
1.999166727,114.3017654,
2.000833273,111.8928986,
2.002500057,113.3390121,
2.004166603,112.1000137,
2.005833387,112.6734848,
2.007500172,113.0967178,
2.009166718,113.3683777,
2.010833263,113.3241348,
2.012500048,113.6874924,
2.014166594,113.3257141,
2.015833378,113.9001694,
2.017500162,112.2014313,
2.019166708,113.4960861,
2.020833254,113.2753601,
2.022500038,113.2576523,
2.024166822,112.3456421,
2.025833368,113.4888916,
2.027499914,113.4609299,
2.029166698,113.8414917,
2.030833244,113.2480927,
2.032500029,113.4463272,
2.034166813,115.1039505,
2.035833359,111.7276077,
2.037499905,113.1382904,
2.039166689,113.8548431,
2.040833473,113.7902374,
2.042500019,113.049118,
2.044166803,113.829071,
2.045833349,112.6854248,
2.047499895,112.3593445,
2.049166679,113.4807281,
2.050833464,112.28022,
2.05250001,113.5201569,
2.054166555,113.4745026,
2.05583334,112.9789963,
2.057500124,113.8080139,
2.05916667,113.4018173,
2.060833454,112.8488617,
2.0625,113.3725052,
2.064166546,113.4591446,
2.06583333,112.6202469,
2.067500114,112.1919327,
2.06916666,113.7882309,
2.070833445,112.8064804,
2.07249999,112.2436218,
2.074166775,112.8234482,
2.075833321,112.9039993,
2.077500105,112.347229,
2.079166651,113.6300583,
2.080833197,113.0145874,
2.082499981,112.8326721,
2.084166765,112.6092529,
2.085833311,112.7036438,
2.087500095,113.3535538,
2.089166641,113.2573547,
2.090833426,113.4764481,
2.092499971,113.1241684,
2.094166756,113.0415344,
2.095833302,113.5183792,
2.097500086,112.5716934,
2.099166632,113.6048889,
2.100833416,112.3918304,
2.102499962,112.5294647,
2.104166746,112.5328979,
2.105833292,112.130249,
2.107500076,113.3741608,
2.109166622,113.6640549,
2.110833406,112.6978836,
2.112499952,112.2782364,
2.114166737,113.223526,
2.115833521,112.9561157,
2.117500067,112.7834396,
2.119166613,112.3144455,
2.120833397,113.0036697,
2.122499943,112.3638992,
2.124166727,112.6509857,
2.125833273,112.5189133,
2.127500057,112.520134,
2.129166603,112.8803558,
2.130833387,113.1340103,
2.132500172,112.8041382,
2.134166718,111.8836823,
2.135833502,111.5521011,
2.137500048,112.4952621,
2.139166832,112.8392029,
2.140833378,113.4723206,
2.142500162,113.7578659,
2.144166708,112.3843765,
2.145833254,113.5174713,
2.147500038,112.3104324,
2.149166584,114.4468765,
2.150833368,112.1501389,
2.152500153,113.9037323,
2.154166698,114.0327606,
2.155833483,113.2598495,
2.157500029,112.6860199,
2.159166813,113.0523529,
2.160833597,111.3792801,
2.162499905,112.2648773,
2.164166689,112.8998566,
2.165833235,112.997345,
2.167500019,111.4539566,
2.169166803,112.9250336,
2.170833349,112.2030945,
2.172500134,112.9393082,
2.174166679,111.8864365,
2.175833464,112.5207367,
2.177500248,112.7540817,
2.179166555,112.7776642,
2.18083334,112.5134506,
2.182499886,112.5050201,
2.18416667,112.0696793,
2.185833454,111.5127869,
2.1875,112.6804657,
2.189166784,112.6316147,
2.19083333,112.2781143,
2.192500114,112.9380875,
2.194166899,113.0245514,
2.195833445,112.292366,
2.19749999,112.5632706,
2.199166536,112.5914993,
2.200833321,111.8395004,
2.202500105,112.9288101,
2.204166651,112.9998856,
2.205833435,112.5419235,
2.207499981,112.940033,
2.209166765,111.9718475,
2.210833549,112.2636719,
2.212500095,112.3853149,
2.21416688,111.8825836,
2.215833187,112.0218964,
2.217499971,111.4800491,
2.219166756,112.5607681,
2.220833302,111.3949127,
2.222500086,112.0543518,
2.224166632,111.6931839,
2.225833416,113.4506912,
2.2275002,112.1520767,
2.229166746,112.7255783,
2.23083353,113.1951218,
2.232499838,112.4158859,
2.234166622,112.2787476,
2.235833406,113.2457123,
2.237499952,113.0063477,
2.239166737,112.4011383,
2.240833282,112.4610214,
2.242500067,113.0973206,
2.244166851,112.0984421,
2.245833397,112.5605011,
2.247500181,112.624733,
2.249166727,112.0931244,
2.250833273,112.8907089,
2.252500057,113.3245544,
2.254166603,112.4890442,
2.255833387,113.0931091,
2.257499933,112.7122345,
2.259166718,112.2361832,
2.260833502,111.8053513,
2.262500048,111.8494339,
2.264166832,111.9142532,
2.265833378,112.2139359,
2.267500162,112.3445816,
2.269166708,113.4601212,
2.270833254,112.613266,
2.272500038,113.47509,
2.274166584,111.8414688,
2.275833368,111.0467987,
2.277500153,112.3040314,
2.279166698,112.9200287,
2.280833483,112.1315002,
2.282500029,113.2712173,
2.284166813,112.3996048,
2.285833597,112.2360153,
2.287499905,112.0566635,
2.289166689,112.2413177,
2.290833235,112.5635605,
2.292500019,112.4253693,
2.294166803,111.8471603,
2.295833349,112.9099808,
2.297500134,112.5255585,
2.299166679,112.779686,
2.300833464,112.5686798,
2.302500248,112.7594986,
2.304166555,112.135994,
2.30583334,112.4661407,
2.307499886,111.6107635,
2.30916667,111.623764,
2.310833454,111.5204468,
2.3125,113.6627274,
2.314166784,111.3897018,
2.31583333,112.6285019,
2.317500114,112.3416672,
2.319166899,112.563446,
2.320833445,111.4569855,
2.32249999,111.8981018,
2.324166536,112.1795654,
2.325833321,111.4758759,
2.327500105,111.9056702,
2.329166651,111.7027359,
2.330833435,113.3154602,
2.332499981,112.9802017,
2.334166765,111.5409546,
2.335833549,111.6180878,
2.337500095,111.9418793,
2.33916688,112.2498169,
2.340833187,113.2683258,
2.342499971,111.5048599,
2.344166756,112.5220108,
2.345833302,111.8404388,
2.347500086,113.245491,
2.349166632,112.4178925,
2.350833416,111.691597,
2.3525002,111.9524536,
2.354166746,112.5581055,
2.35583353,111.2631073,
2.357499838,111.327919,
2.359166622,111.6366959,
2.360833406,111.1178207,
2.362499952,111.3984604,
2.364166737,113.3019638,
2.365833282,111.246788,
2.367500067,112.24646,
2.369166851,112.1039429,
2.370833397,111.7565994,
2.372500181,112.6855927,
2.374166727,112.103363,
2.375833273,111.9867172,
2.377500057,111.3592377,
2.379166603,111.9962997,
2.380833387,113.0410004,
2.382499933,111.5708771,
2.384166718,111.9922638,
2.385833502,111.8062744,
2.387500048,110.8758698,
2.389166832,112.8193817,
2.390833378,112.6728592,
2.392500162,111.9851913,
2.394166708,112.3459778,
2.395833254,112.7856827,
2.397500038,111.7450409,
2.399166584,112.9618912,
2.400833368,110.9815063,
2.402500153,111.7241898,
2.404166698,112.4139328,
2.405833483,112.3067551,
2.407500029,112.0764694,
2.409166813,112.3933258,
2.410833597,111.9424057,
2.412499905,111.2851181,
2.414166689,110.972168,
2.415833235,112.7696533,
2.417500019,112.1871338,
2.419166803,112.2452621,
2.420833349,111.6207428,
2.422500134,111.3286591,
2.424166679,112.4363785,
2.425833464,111.7323761,
2.427500248,111.796669,
2.429166555,111.4621582,
2.43083334,112.1469574,
2.432499886,111.7146072,
2.43416667,112.3502274,
2.435833454,112.3598785,
2.4375,112.5400925,
2.439166784,112.436676,
2.44083333,112.2008667,
2.442500114,111.6167603,
2.444166899,111.1263351,
2.445833445,112.6214676,
2.44749999,111.7465744,
2.449166536,112.1512985,
2.450833321,112.206871,
2.452500105,111.7103271,
2.454166651,111.1184616,
2.455833435,110.5749359,
2.457499981,112.6800308,
2.459166765,111.5769196,
2.460833549,111.6994781,
2.462500095,112.0691681,
2.46416688,112.357338,
2.465833187,112.6843643,
2.467499971,111.1514816,
2.469166756,111.4932709,
2.470833302,111.8168793,
2.472500086,112.0936661,
2.474166632,112.2965012,
2.475833416,112.010437,
2.4775002,112.2157593,
2.479166746,111.7878265,
2.48083353,110.7451019,
2.482499838,110.8963623,
2.484166622,111.554924,
2.485833406,111.949585,
2.487499952,112.8919296,
2.489166737,112.2302933,
2.490833282,112.3951035,
2.492500067,111.7305527,
2.494166851,111.083992,
2.495833397,112.0311203,
2.497500181,111.7161789,
2.499166727,111.9571686,
2.500833273,112.3837433,
2.502500057,111.7104721,
2.504166603,112.0461731,
2.505833387,111.2941666,
2.507499933,110.9672318,
2.509166718,111.9956055,
2.510833502,110.9164886,
2.512500048,112.130127,
2.514166832,111.477356,
2.515833378,111.7344055,
2.517500162,112.680687,
2.519166708,112.9704361,
2.520833254,111.7499847,
2.522500038,111.0540237,
2.524166584,112.837471,
2.525833368,111.5423355,
2.527500153,111.0328217,
2.529166698,110.9484482,
2.530833483,110.603981,
2.532500029,111.942215,
2.534166813,112.6020508,
2.535833597,110.9625092,
2.537499905,111.045517,
2.539166689,111.980217,
2.540833235,111.0375671,
2.542500019,111.9190369,
2.544166803,111.8869095,
2.545833349,112.739006,
2.547500134,110.7087936,
2.549166679,111.2222443,
2.550833464,110.5604095,
2.552500248,111.3873062,
2.554166555,112.1315918,
2.55583334,112.2271271,
2.557499886,111.2276154,
2.55916667,111.6261902,
2.560833454,111.8616333,
2.5625,112.3272247,
2.564166784,111.7879333,
2.56583333,111.083786,
2.567500114,111.1307373,
2.569166899,112.7073822,
2.570833445,112.2480011,
2.57249999,111.4586334,
2.574166536,112.1541443,
2.575833321,111.7108994,
2.577500105,112.3953705,
2.579166651,112.2253952,
2.580833435,112.1483154,
2.582499981,112.2498398,
2.584166765,110.7867889,
2.585833549,111.2783661,
2.587500095,111.5565186,
2.58916688,112.8097229,
2.590833187,111.9243698,
2.592499971,111.5162201,
2.594166756,112.3809433,
2.595833302,111.407341,
2.597500086,111.463913,
2.599166632,111.6481628,
2.600833416,111.3572311,
2.6025002,111.0380096,
2.604166746,111.7529297,
2.60583353,112.9310608,
2.607499838,112.5079193,
2.609166622,111.2717514,
2.610833406,112.5642166,
2.612499952,111.647934,
2.614166737,112.0618362,
2.615833282,110.9430389,
2.617500067,112.1700668,
2.619166851,111.7192459,
2.620833397,111.436882,
2.622500181,111.6418381,
2.624166727,112.3467712,
2.625833273,111.6930008,
2.627500057,111.6324005,
2.629166603,110.5766678,
2.630833387,111.0977097,
2.632499933,111.7864304,
2.634166718,111.0470734,
2.635833502,111.1801453,
2.637500048,112.3441467,
2.639166832,111.0344849,
2.640833378,111.7179184,
2.642500162,112.0150146,
2.644166708,113.1189117,
2.645833254,111.5832672,
2.647500038,111.8249512,
2.649166584,111.2736664,
2.650833368,111.3602066,
2.652500153,111.4243622,
2.654166698,112.7461472,
2.655833483,110.6839828,
2.657500029,110.8548889,
2.659166813,111.7790985,
2.660833597,112.1068497,
2.662499905,111.381813,
2.664166689,111.2235336,
2.665833235,111.9501038,
2.667500019,111.4461746,
2.669166803,111.1850357,
2.670833349,110.9079132,
2.672500134,111.475853,
2.674166679,113.0234451,
2.675833464,111.7103424,
2.677500248,111.2022171,
2.679166555,111.1810379,
2.68083334,110.9358444,
2.682499886,111.3056717,
2.68416667,111.7761536,
2.685833454,111.7850418,
2.6875,112.3691483,
2.689166784,112.0025787,
2.69083333,111.7826004,
2.692500114,111.8839874,
2.694166899,111.786911,
2.695833445,111.2624893,
2.69749999,110.1975174,
2.699166536,111.1504745,
2.700833321,112.4563828,
2.702500105,110.4364548,
2.704166651,111.5265884,
2.705833435,110.5940857,
2.707499981,110.99897,
2.709166765,111.2043686,
2.710833549,112.1078949,
2.712500095,111.3520813,
2.71416688,110.5810547,
2.715833187,111.5709763,
2.717499971,112.7025299,
2.719166756,111.0290985,
2.720833302,111.3465576,
2.722500086,111.2094498,
2.724166632,111.0323944,
2.725833416,110.9458466,
2.7275002,111.2877426,
2.729166746,110.9035797,
2.73083353,110.4432983,
2.732499838,110.395752,
2.734166622,112.3345871,
2.735833406,110.1947021,
2.737499952,111.4561691,
2.739166737,111.2543259,
2.740833282,111.2108917,
2.742500067,111.2985535,
2.744166851,111.1343079,
2.745833397,111.4985733,
2.747500181,111.7778091,
2.749166727,111.0080719,
2.750833273,110.9239197,
2.752500057,111.6421127,
2.754166603,112.0011673,
2.755833387,111.4103088,
2.757499933,111.4752884,
2.759166718,111.0115356,
2.760833502,112.4574966,
2.762500048,111.941246,
2.764166832,110.2832108,
2.765833378,112.0203857,
2.767500162,111.9050827,
2.769166708,112.6280289,
2.770833254,110.9878159,
2.772500038,111.4213562,
2.774166584,111.3534393,
2.775833368,111.5585938,
2.777500153,111.9291077,
2.779166698,112.0025787,
2.780833483,111.4333878,
2.782500029,111.3433609,
2.784166813,111.4461975,
2.785833597,112.1632996,
2.787499905,112.0379639,
2.789166689,111.9979935,
2.790833235,112.5312805,
2.792500019,111.4644775,
2.794166803,111.4548035,
2.795833349,111.3469162,
2.797500134,111.8978348,
2.799166679,111.6097794,
2.800833464,110.9171829,
2.802500248,111.8932877,
2.804166555,112.046463,
2.80583334,110.8896027,
2.807499886,111.2339935,
2.80916667,110.9523697,
2.810833454,111.0512085,
2.8125,110.6876373,
2.814166784,112.017952,
2.81583333,112.3174591,
2.817500114,111.6495438,
2.819166899,112.3181534,
2.820833445,111.0264511,
2.82249999,110.8472366,
2.824166536,110.8848267,
2.825833321,111.953537,
2.827500105,111.9191971,
2.829166651,110.4385605,
2.830833435,111.3088608,
2.832499981,111.5620728,
2.834166765,111.1822586,
2.835833549,111.7240295,
2.837500095,110.9219742,
2.83916688,111.2616882,
2.840833187,110.971817,
2.842499971,110.7682266,
2.844166756,111.5987091,
2.845833302,110.5180206,
2.847500086,111.2535553,
2.849166632,111.0544434,
2.850833416,110.4622345,
2.8525002,111.1984787,
2.854166746,110.1582031,
2.85583353,111.3789825,
2.857499838,110.406517,
2.859166622,110.6305542,
2.860833406,111.5385742,
2.862499952,110.9768524,
2.864166737,110.7930145,
2.865833282,111.36203,
2.867500067,111.0250092,
2.869166851,111.0768814,
2.870833397,110.6955032,
2.872500181,111.2370987,
2.874166727,111.3953323,
2.875833273,111.5711212,
2.877500057,111.0506516,
2.879166603,110.9527893,
2.880833387,111.2833023,
2.882499933,111.5541153,
2.884166718,111.6760025,
2.885833502,111.596611,
2.887500048,110.4404373,
2.889166832,110.7868118,
2.890833378,112.8827057,
2.892500162,111.0678329,
2.894166708,111.3235168,
2.895833254,110.840126,
2.897500038,110.7434082,
2.899166584,111.1124344,
2.900833368,111.7095032,
2.902500153,111.329895,
2.904166698,111.7682495,
2.905833483,111.2610703,
2.907500029,112.2095184,
2.909166813,110.6162491,
2.910833597,111.5315475,
2.912499905,111.1222076,
2.914166689,111.3317413,
2.915833235,111.2093735,
2.917500019,111.5796661,
2.919166803,110.8366013,
2.920833349,112.0888748,
2.922500134,110.9828186,
2.924166679,113.1334152,
2.925833464,111.1177826,
2.927500248,111.3319092,
2.929166555,111.0406036,
2.93083334,111.5111771,
2.932499886,111.8243713,
2.93416667,110.5482941,
2.935833454,111.2209015,
2.9375,111.4412994,
2.939166784,111.8891602,
2.94083333,111.6955643,
2.942500114,110.4904633,
2.944166899,110.6091232,
2.945833445,111.4757996,
2.94749999,111.1547012,
2.949166536,111.4564285,
2.950833321,110.6981506,
2.952500105,111.5194702,
2.954166651,110.9468765,
2.955833435,111.6145401,
2.957499981,110.4852371,
2.959166765,111.0017319,
2.960833549,110.8692932,
2.962500095,110.9411926,
2.96416688,110.9750214,
2.965833187,110.9442978,
2.967499971,110.4040146,
2.969166756,111.9554825,
2.970833302,110.5353699,
2.972500086,110.0107193,
2.974166632,110.9453201,
2.975833416,111.3910294,
2.9775002,112.1993332,
2.979166746,111.0461273,
2.98083353,111.8471909,
2.982499838,111.1440887,
2.984166622,111.2771683,
2.985833406,110.4936905,
2.987499952,110.6595459,
2.989166737,111.2559204,
2.990833282,111.1137543,
2.992500067,110.8387527,
2.994166851,110.4183197,
2.995833397,110.5654297,
2.997500181,110.6570282,
2.999166727,110.6401901,
3.000833273,111.9781265,
3.002500057,111.5686111,
3.004166603,110.0472794,
3.005833387,111.855957,
3.007499933,111.1274033,
3.009166718,110.3635483,
3.010833502,110.5426254,
3.012500048,110.9659042,
3.014166832,110.6036911,

