1,,
Time (min),Intensity (a.u.),
0.0008333333535,233.9986572,
0.002500000177,232.674118,
0.004166666884,232.1825867,
0.005833333358,233.3960876,
0.007500000298,231.6258545,
0.009166667238,232.7758179,
0.01083333418,232.5637665,
0.01250000019,230.8682251,
0.01416666713,231.412674,
0.01583333313,233.1204987,
0.01750000194,233.5924988,
0.01916666701,232.751297,
0.02083333395,233.5367584,
0.02250000089,233.8837738,
0.02416666783,231.875351,
0.02583333477,233.3942108,
0.02749999985,231.6001587,
0.02916666679,231.5226746,
0.03083333373,233.617691,
0.03250000253,232.6538849,
0.03416666761,233.4212341,
0.03583333641,232.2005005,
0.03750000149,233.0454254,
0.03916667029,233.4568787,
0.04083333537,231.9451752,
0.04250000045,231.9152222,
0.04416666925,232.195694,
0.04583333433,233.0177155,
0.04750000313,232.8959198,
0.04916666821,231.560379,
0.05083333328,233.2582397,
0.05250000209,234.1529846,
0.05416666716,233.2640991,
0.05583333597,234.2454834,
0.05750000104,232.3652954,
0.05916666612,233.3872833,
0.06083333492,232.1608582,
0.0625,233.5769043,
0.06416667253,232.2627411,
0.0658333376,232.8280945,
0.06750000268,233.2509918,
0.06916666776,233.3114319,
0.07083333284,232.3155975,
0.07249999791,233.301178,
0.07416667044,232.8632202,
0.07583333552,233.7134247,
0.0775000006,234.2400818,
0.07916666567,232.1796417,
0.08083333075,233.5914307,
0.08250000328,233.3391724,
0.08416666836,234.3149872,
0.08583333343,233.3170166,
0.08749999851,234.9006958,
0.08916666359,232.4679718,
0.09083333611,231.7649536,
0.09250000119,233.1432648,
0.09416666627,233.9276123,
0.09583333135,233.6768951,
0.09749999642,234.4979553,
0.09916666895,233.5532532,
0.100833334,233.2718201,
0.1024999991,235.0319519,
0.1041666642,232.2323303,
0.1058333293,231.7232513,
0.1075000018,235.0881042,
0.1091666669,231.8128204,
0.1108333319,234.2867737,
0.112499997,234.3613129,
0.1141666621,235.5083466,
0.1158333346,232.1786499,
0.1174999997,234.7328033,
0.1191666648,232.6532288,
0.1208333299,230.452774,
0.1224999949,233.0092926,
0.1241666749,233.2365265,
0.1258333325,234.3367615,
0.1274999976,233.265625,
0.1291666627,232.2280273,
0.1308333278,233.8661041,
0.1325000077,232.6253052,
0.1341666728,233.6302338,
0.1358333379,234.0243683,
0.137500003,232.0935974,
0.1391666681,233.0825653,
0.1408333331,232.7818451,
0.1424999982,232.6789551,
0.1441666782,232.9676819,
0.1458333284,231.3250275,
0.1475000083,233.2868805,
0.1491666585,232.6536713,
0.1508333385,231.6698151,
0.1525000036,233.4399567,
0.1541666687,233.7028046,
0.1558333337,233.3968201,
0.1574999988,234.1667328,
0.1591666639,232.1355133,
0.1608333439,233.3457031,
0.162499994,233.8932648,
0.164166674,233.1628418,
0.1658333242,232.9864349,
0.1675000042,232.4021759,
0.1691666692,232.7272034,
0.1708333343,232.7329254,
0.1724999994,230.8722687,
0.1741666645,232.3504791,
0.1758333296,235.2172394,
0.1775000095,233.9668427,
0.1791666597,234.3544312,
0.1808333397,231.6786957,
0.1824999899,233.5888519,
0.1841666698,232.7064209,
0.1858333498,233.5027161,
0.1875,233.0596008,
0.18916668,234.2320404,
0.1908333302,234.6162109,
0.1925000101,232.0500793,
0.1941666752,232.6868286,
0.1958333403,234.2864685,
0.1975000054,233.4379578,
0.1991666704,233.1657257,
0.2008333355,231.8111877,
0.2025000155,233.2668152,
0.2041666657,231.928772,
0.2058333457,232.634552,
0.2074999958,232.6351624,
0.2091666758,233.5454407,
0.2108333409,232.2711487,
0.212500006,232.3291321,
0.214166671,232.4654083,
0.2158333361,233.7106476,
0.2175000012,234.2879333,
0.2191666812,232.1428528,
0.2208333313,231.6559448,
0.2225000113,232.8270569,
0.2241666615,230.858429,
0.2258333415,233.1865234,
0.2275000066,233.5639954,
0.2291666716,233.767868,
0.2308333367,233.3795471,
0.2325000018,234.6807861,
0.2341666669,235.4536285,
0.2358333468,232.9786377,
0.237499997,233.3258514,
0.239166677,233.9023285,
0.2408333272,233.3043671,
0.2425000072,234.2213287,
0.2441666722,232.3574524,
0.2458333373,235.7070618,
0.2475000024,232.2658691,
0.2491666675,232.5114594,
0.2508333325,233.2577972,
0.2524999976,231.9325867,
0.2541666627,233.4767303,
0.2558333278,234.1292114,
0.2574999928,233.7931671,
0.2591666579,233.0374298,
0.2608333528,233.2198639,
0.2624999881,232.6795349,
0.264166683,233.0257568,
0.2658333182,231.8095398,
0.2675000131,231.9763947,
0.2691666484,232.5992737,
0.2708333433,231.8038788,
0.2725000083,231.8632813,
0.2741666734,232.8370361,
0.2758333385,232.58078,
0.2775000036,233.1918182,
0.2791666687,232.5884094,
0.2808333337,232.668457,
0.2824999988,232.7213287,
0.2841666937,234.2652588,
0.285833329,233.8040161,
0.287499994,231.1737366,
0.2891666591,232.0966339,
0.290833354,231.5003052,
0.2925000191,232.1937866,
0.2941666543,233.4219513,
0.2958333194,232.8879089,
0.2975000143,233.6308136,
0.2991666794,234.4267273,
0.3008333445,235.2091675,
0.3024999797,232.418335,
0.3041666746,232.6294403,
0.3058333397,233.1344604,
0.3075000048,233.5046692,
0.3091666996,233.4883423,
0.3108333349,230.9537964,
0.3125,232.1743622,
0.3141666651,233.0114594,
0.31583336,232.2341614,
0.317500025,231.9412842,
0.3191666603,233.2677917,
0.3208333254,233.0108795,
0.3225000203,232.5701447,
0.3241666853,234.4742126,
0.3258333504,233.2536469,
0.3274999857,232.4400177,
0.3291666806,231.4990387,
0.3308333457,233.5905914,
0.3325000107,231.9245148,
0.3341666758,234.1108398,
0.3358333409,231.8766937,
0.337500006,232.8501129,
0.339166671,233.5131989,
0.3408333361,233.4899139,
0.342500031,234.2424011,
0.3441666663,233.4050598,
0.3458333313,231.3129425,
0.3474999964,232.598175,
0.3491666913,233.5309448,
0.3508333564,234.4693909,
0.3524999917,234.9094696,
0.3541666567,233.8070374,
0.3558333516,233.7350616,
0.3575000167,234.3548279,
0.3591666818,234.5266266,
0.360833317,234.7671814,
0.3625000119,233.7518463,
0.364166677,231.4850769,
0.3658333421,234.2322083,
0.3675000072,232.8462524,
0.3691666722,233.5379944,
0.3708333373,233.5987701,
0.3725000024,234.5628052,
0.3741666675,233.0920563,
0.3758333623,234.3093109,
0.3774999976,232.8238678,
0.3791666627,232.533905,
0.3808333278,233.2380981,
0.3825000226,232.0691223,
0.3841666877,233.213623,
0.385833323,233.7256927,
0.3874999881,234.6857452,
0.389166683,234.512085,
0.390833348,233.438797,
0.3925000131,233.5932007,
0.3941666484,231.2044983,
0.3958333433,232.7659454,
0.3975000083,232.605423,
0.3991666734,233.671524,
0.4008333385,232.9605713,
0.4025000036,233.8807068,
0.4041666687,233.6586761,
0.4058333337,232.6988831,
0.4074999988,233.5731049,
0.4091666937,232.5289154,
0.410833329,232.0939941,
0.412499994,232.1634827,
0.4141666591,233.4549255,
0.415833354,232.6772614,
0.4175000191,234.0807953,
0.4191666543,232.5189209,
0.4208333194,233.2230225,
0.4225000143,233.9068146,
0.4241666794,234.0504303,
0.4258333445,232.9928436,
0.4274999797,231.7025452,
0.4291666746,234.4617157,
0.4308333397,232.3381653,
0.4325000048,233.7290802,
0.4341666996,233.3288574,
0.4358333349,232.961441,
0.4375,234.6029816,
0.4391666651,232.5892029,
0.44083336,232.4289856,
0.442500025,232.3155823,
0.4441666603,232.6405487,
0.4458333254,231.6001282,
0.4475000203,233.0927582,
0.4491666853,232.4727783,
0.4508333504,234.325943,
0.4524999857,232.9756927,
0.4541666806,232.4310455,
0.4558333457,232.9334412,
0.4575000107,231.7773438,
0.4591666758,233.7050018,
0.4608333409,232.4250488,
0.462500006,231.5531158,
0.464166671,232.3138123,
0.4658333361,232.3201447,
0.467500031,233.640976,
0.4691666663,234.1089478,
0.4708333313,234.4104004,
0.4724999964,232.8470612,
0.4741666913,232.3322144,
0.4758333564,232.3530426,
0.4774999917,232.1022186,
0.4791666567,233.02388,
0.4808333516,234.0971375,
0.4825000167,232.0655212,
0.4841666818,232.8909912,
0.485833317,233.4841003,
0.4875000119,233.9459381,
0.489166677,233.552536,
0.4908333421,235.8665466,
0.4925000072,233.3860474,
0.4941666722,232.6517639,
0.4958333373,233.7324982,
0.4975000024,231.7497864,
0.4991666675,231.8658905,
0.5008333325,232.3238983,
0.5024999976,233.8935242,
0.5041666627,233.1707458,
0.5058333278,232.6414642,
0.5074999928,232.7991486,
0.5091666579,232.6282043,
0.510833323,233.0058746,
0.5124999881,232.9187469,
0.5141666532,232.6101685,
0.5158333182,233.7606506,
0.5175000429,232.4319611,
0.5191666484,233.7628937,
0.5208333135,233.4451904,
0.5224999785,231.6701508,
0.5241667032,233.7801056,
0.5258333683,233.8259125,
0.5274999738,232.8683167,
0.5291666389,233.6014404,
0.5308333635,232.2932739,
0.5325000286,235.4841309,
0.5341666341,233.8183899,
0.5358333588,233.5537262,
0.5375000238,232.6217194,
0.5391666889,234.6130066,
0.540833354,233.1705475,
0.5424999595,231.8859253,
0.5441666842,233.1616058,
0.5458333492,233.5612488,
0.5475000143,233.0493622,
0.5491666794,232.1637268,
0.5508333445,233.1679688,
0.5525000095,233.9705811,
0.5541666746,232.563446,
0.5558333993,232.0816803,
0.5575000048,233.615509,
0.5591666698,232.8591003,
0.5608333349,233.9056244,
0.5625,232.9353485,
0.5641667247,231.8933411,
0.5658333302,233.2443237,
0.5674999952,233.5715485,
0.5691667199,232.9738007,
0.5708333254,233.1460724,
0.5725000501,232.049469,
0.5741666555,235.5302734,
0.5758333206,234.1529694,
0.5775000453,232.7850494,
0.5791666508,233.2672272,
0.5808333755,233.4464264,
0.5825000405,232.8312988,
0.584166646,232.5278931,
0.5858333707,234.1291351,
0.5874999762,230.8351746,
0.5891667008,233.7724915,
0.5908333659,232.8207703,
0.5924999714,233.3358154,
0.5941666961,232.2251282,
0.5958333611,232.5513916,
0.5975000262,232.4032593,
0.5991666913,233.660965,
0.6008332968,231.8993835,
0.6025000215,233.5983734,
0.6041666865,232.6517334,
0.6058333516,234.1794434,
0.6075000167,232.6243744,
0.6091666818,232.1963348,
0.6108333468,233.5017548,
0.6125000119,232.8890228,
0.614166677,232.5627899,
0.6158333421,233.0370483,
0.6175000072,233.549942,
0.6191666722,232.105072,
0.6208333373,233.3246613,
0.622500062,232.1735382,
0.6241666675,233.3699646,
0.6258333325,234.4935455,
0.6274999976,231.5647736,
0.6291666627,233.1880188,
0.6308333874,233.2239075,
0.6324999928,234.2085419,
0.6341666579,233.3056641,
0.6358333826,233.2420959,
0.6374999881,231.4731445,
0.6391667128,232.5776825,
0.6408333182,234.7215881,
0.6424999833,233.4434662,
0.644166708,231.9727478,
0.6458333135,231.3717651,
0.6475000381,232.7852173,
0.6491667032,234.3646698,
0.6508333087,232.4566193,
0.6525000334,233.4811859,
0.6541666389,232.3540039,
0.6558333635,232.5567169,
0.6575000286,232.8733215,
0.6591666341,230.7309723,
0.6608333588,232.9162445,
0.6625000238,232.7729645,
0.6641666889,233.1618042,
0.665833354,232.4914856,
0.6674999595,232.5176544,
0.6691666842,231.950119,
0.6708333492,234.5185699,
0.6725000143,233.1160278,
0.6741666794,231.6568146,
0.6758333445,234.1062622,
0.6775000095,232.4319763,
0.6791666746,232.6329346,
0.6808333993,233.0739746,
0.6825000048,232.3333588,
0.6841666698,232.8368835,
0.6858333349,231.800415,
0.6875,232.5080872,
0.6891667247,231.3170929,
0.6908333302,233.3329315,
0.6924999952,232.5572968,
0.6941667199,233.6693115,
0.6958333254,234.3130493,
0.6975000501,232.0328522,
0.6991666555,233.76297,
0.7008333206,232.2510223,
0.7025000453,232.8441772,
0.7041666508,234.0672302,
0.7058333755,232.7431488,
0.7075000405,231.9326935,
0.709166646,234.0070343,
0.7108333707,232.7926331,
0.7124999762,233.008194,
0.7141667008,232.1619873,
0.7158333659,233.2722931,
0.7174999714,231.6821136,
0.7191666961,232.5197296,
0.7208333611,233.5725861,
0.7225000262,232.8710175,
0.7241666913,236.7806854,
0.7258332968,232.8131104,
0.7275000215,234.7540894,
0.7291666865,232.3841705,
0.7308333516,231.8944244,
0.7325000167,232.5461731,
0.7341666818,234.501297,
0.7358333468,233.0254822,
0.7375000119,234.1960297,
0.739166677,232.9765167,
0.7408333421,233.0644226,
0.7425000072,232.0233002,
0.7441666722,232.4939117,
0.7458333373,231.7642822,
0.747500062,232.0497284,
0.7491666675,234.5216064,
0.7508333325,232.8358002,
0.7524999976,230.7989044,
0.7541666627,231.5960541,
0.7558333874,235.1063995,
0.7574999928,233.1396332,
0.7591666579,233.056076,
0.7608333826,230.7248993,
0.7624999881,231.9809418,
0.7641667128,232.4018555,
0.7658333182,230.2253113,
0.7674999833,234.3228149,
0.769166708,232.2709198,
0.7708333135,232.2278595,
0.7725000381,233.1320801,
0.7741667032,231.6369629,
0.7758333087,232.4926758,
0.7775000334,232.9501343,
0.7791666389,234.4351959,
0.7808333635,232.9481049,
0.7825000286,232.7699738,
0.7841666341,232.6918488,
0.7858333588,232.5286713,
0.7875000238,233.3726501,
0.7891666889,232.3773346,
0.790833354,231.4468842,
0.7924999595,233.588974,
0.7941666842,233.4793243,
0.7958333492,232.522644,
0.7975000143,231.6054077,
0.7991666794,232.452713,
0.8008333445,231.8097839,
0.8025000095,232.4130859,
0.8041666746,232.9637299,
0.8058333993,232.5482788,
0.8075000048,232.0366211,
0.8091666698,232.1073151,
0.8108333349,231.4302826,
0.8125,231.0353851,
0.8141667247,231.8631592,
0.8158333302,231.0295105,
0.8174999952,233.0749207,
0.8191667199,232.5357208,
0.8208333254,232.1079559,
0.8225000501,233.3053894,
0.8241666555,231.8889923,
0.8258333206,232.7159119,
0.8275000453,232.8037109,
0.8291666508,231.0341034,
0.8308333755,231.4049988,
0.8325000405,231.7859497,
0.834166646,232.1534119,
0.8358333707,233.1188812,
0.8374999762,231.4138489,
0.8391667008,233.1269379,
0.8408333659,232.3218079,
0.8424999714,231.245285,
0.8441666961,231.100235,
0.8458333611,231.855896,
0.8475000262,232.4784393,
0.8491666913,231.5276337,
0.8508332968,232.3278351,
0.8525000215,230.7275391,
0.8541666865,232.0476685,
0.8558333516,230.9475403,
0.8575000167,231.802597,
0.8591666818,231.640213,
0.8608333468,232.6159515,
0.8625000119,233.3792114,
0.864166677,233.4387054,
0.8658333421,231.6637878,
0.8675000072,231.7742004,
0.8691666722,232.9380493,
0.8708333373,231.3917236,
0.872500062,232.2714691,
0.8741666675,231.4334106,
0.8758333325,233.826767,
0.8774999976,230.3011627,
0.8791666627,232.9935455,
0.8808333874,232.4637909,
0.8824999928,232.7358246,
0.8841666579,232.2170715,
0.8858333826,232.5682678,
0.8874999881,231.0031738,
0.8891667128,232.7890015,
0.8908333182,232.3447723,
0.8924999833,230.2480774,
0.894166708,231.5374298,
0.8958333135,232.4573822,
0.8975000381,233.4642029,
0.8991667032,233.205719,
0.9008333087,235.3396301,
0.9025000334,234.096283,
0.9041666389,231.8718872,
0.9058333635,232.3928528,
0.9075000286,231.9361267,
0.9091666341,232.1568909,
0.9108333588,233.0730438,
0.9125000238,233.3955078,
0.9141666889,234.4482574,
0.915833354,231.8821106,
0.9174999595,232.7534485,
0.9191666842,231.4392853,
0.9208333492,232.5556946,
0.9225000143,234.5167694,
0.9241666794,232.5343628,
0.9258333445,232.177002,
0.9275000095,232.8145905,
0.9291666746,233.4935608,
0.9308333993,232.6806641,
0.9325000048,230.971405,
0.9341666698,231.3212891,
0.9358333349,232.7674713,
0.9375,231.9537201,
0.9391667247,230.6042175,
0.9408333302,232.5299835,
0.9424999952,232.9113312,
0.9441667199,231.9093018,
0.9458333254,234.7437286,
0.9475000501,231.5760803,
0.9491666555,232.8598022,
0.9508333206,231.7880402,
0.9525000453,231.6126709,
0.9541666508,231.8528595,
0.9558333755,232.1920624,
0.9575000405,230.9393311,
0.959166646,230.20755,
0.9608333707,231.9641266,
0.9624999762,231.0734406,
0.9641667008,231.4767914,
0.9658333659,232.1814117,
0.9674999714,230.2023163,
0.9691666961,232.7993927,
0.9708333611,232.4236298,
0.9725000262,232.8717194,
0.9741666913,231.5087585,
0.9758332968,232.1691742,
0.9775000215,230.7063904,
0.9791666865,231.859024,
0.9808333516,231.8707428,
0.9825000167,231.3519592,
0.9841666818,231.0312805,
0.9858333468,231.1582489,
0.9875000119,231.4456482,
0.989166677,231.9309845,
0.9908333421,231.8740997,
0.9925000072,231.029129,
0.9941666722,232.1369629,
0.9958333373,232.035141,
0.997500062,230.1194458,
0.9991666675,233.6220245,
1.000833273,231.4071198,
1.002500057,231.6226501,
1.004166722,229.8870544,
1.005833387,232.328949,
1.007500052,230.053894,
1.009166598,208.0510559,
1.010833383,200.0610199,
1.012500048,201.2420349,
1.014166713,195.7271576,
1.015833378,188.9137726,
1.017500043,177.3621368,
1.019166708,212.1123047,
1.020833373,214.2024994,
1.022500038,212.0010376,
1.024166703,208.7006836,
1.025833368,206.8427124,
1.027500033,204.5863647,
1.029166698,205.0346222,
1.030833364,204.8579559,
1.032500029,206.7693329,
1.034166694,205.8246002,
1.035833359,220.532547,
1.037500024,183.8858948,
1.039166689,213.0647125,
1.040833354,210.5317535,
1.042500019,183.5191193,
1.044166684,200.9002533,
1.045833349,194.6760559,
1.047500014,177.4145355,
1.049166679,204.9103088,
1.050833344,195.8244781,
1.05250001,171.7588959,
1.054166675,185.6090546,
1.05583334,189.8083649,
1.057500005,164.6352234,
1.05916667,179.4336548,
1.060833335,180.2096863,
1.0625,164.0026703,
1.064166665,165.4993134,
1.06583333,190.059494,
1.067499995,190.6725159,
1.06916666,189.148407,
1.070833325,188.2548676,
1.07249999,186.840683,
1.074166775,185.6245117,
1.07583344,184.2475281,
1.077499986,183.4094391,
1.079166651,183.383667,
1.080833316,182.3222198,
1.0825001,180.0681915,
1.084166765,179.8665161,
1.085833311,178.684433,
1.087499976,178.3610992,
1.089166641,176.6316223,
1.090833426,176.5595093,
1.092500091,175.6114349,
1.094166636,175.1681519,
1.095833302,173.4509583,
1.097499967,172.7597504,
1.099166751,172.4285736,
1.100833416,172.7701263,
1.102500081,171.979126,
1.104166627,170.4904175,
1.105833292,169.6399994,
1.107500076,168.8423157,
1.109166741,167.8445587,
1.110833406,168.0565186,
1.112499952,166.9623413,
1.114166617,166.921463,
1.115833402,166.2753601,
1.117500067,164.7256775,
1.119166732,165.3847351,
1.120833278,164.967514,
1.122499943,164.5550537,
1.124166727,163.2998505,
1.125833392,162.9121857,
1.127500057,163.3324432,
1.129166722,161.9677429,
1.130833268,162.317627,
1.132500052,160.6341553,
1.134166718,161.1660767,
1.135833383,160.6629639,
1.137500048,159.1390228,
1.139166594,160.2996216,
1.140833378,159.5584717,
1.142500043,158.1277161,
1.144166708,158.1822662,
1.145833373,156.8364716,
1.147499919,156.8870697,
1.149166703,156.7700958,
1.150833368,156.9040527,
1.152500033,155.635849,
1.154166698,156.8886414,
1.155833364,157.4949646,
1.157500029,155.4456635,
1.159166694,155.903244,
1.160833359,154.9460449,
1.162500024,155.2484894,
1.164166689,153.9051361,
1.165833354,154.7333374,
1.167500019,154.4998627,
1.169166684,154.1820068,
1.170833349,153.6884613,
1.172500014,153.2481689,
1.174166799,153.1736755,
1.175833344,151.9420471,
1.17750001,151.4230042,
1.179166675,151.9936523,
1.18083334,151.7532959,
1.182500124,151.0478821,
1.18416667,150.822052,
1.185833335,151.3288574,
1.1875,150.0129242,
1.189166665,149.7622986,
1.190833449,150.9046326,
1.192499995,150.6930847,
1.19416666,149.2522888,
1.195833325,149.8850098,
1.19749999,147.7351227,
1.199166775,148.8324432,
1.20083344,148.6122589,
1.202499986,149.226181,
1.204166651,149.2301636,
1.205833316,148.9293976,
1.2075001,149.0337982,
1.209166765,147.3455505,
1.210833311,148.3826294,
1.212499976,147.8988953,
1.214166641,148.7982941,
1.215833426,147.1382141,
1.217500091,146.9539185,
1.219166636,147.4079132,
1.220833302,147.4525452,
1.222499967,146.5694885,
1.224166751,146.469223,
1.225833416,146.8219299,
1.227500081,145.6896667,
1.229166627,147.2363739,
1.230833292,146.2194977,
1.232500076,146.4562836,
1.234166741,145.5189209,
1.235833406,144.7792053,
1.237499952,145.2353668,
1.239166617,145.291687,
1.240833402,145.1605988,
1.242500067,145.7188721,
1.244166732,145.5571136,
1.245833278,144.2671967,
1.247499943,144.2503357,
1.249166727,144.6722717,
1.250833392,143.4900513,
1.252500057,143.9166718,
1.254166722,143.411972,
1.255833268,143.7746277,
1.257500052,143.6248779,
1.259166718,143.8219604,
1.260833383,143.2106018,
1.262500048,142.6647797,
1.264166594,141.7431641,
1.265833378,142.0005035,
1.267500043,142.7861786,
1.269166708,142.3688202,
1.270833373,143.4553528,
1.272499919,142.00914,
1.274166703,143.058136,
1.275833368,142.0779114,
1.277500033,142.5944672,
1.279166698,140.7819824,
1.280833364,142.9196777,
1.282500029,142.5870972,
1.284166694,141.399704,
1.285833359,141.4749298,
1.287500024,141.0239868,
1.289166689,141.3667603,
1.290833354,141.5414886,
1.292500019,141.8359222,
1.294166684,141.4819183,
1.295833349,141.7206573,
1.297500014,141.7387543,
1.299166799,141.63974,
1.300833344,140.9355164,
1.30250001,141.3441925,
1.304166675,140.4294434,
1.30583334,139.667984,
1.307500124,141.219986,
1.30916667,140.6525574,
1.310833335,141.089325,
1.3125,140.8821564,
1.314166665,140.0584106,
1.315833449,140.1763306,
1.317499995,140.0645752,
1.31916666,139.8297272,
1.320833325,138.9074402,
1.32249999,141.0319519,
1.324166775,140.1467743,
1.32583344,139.9855347,
1.327499986,138.9045105,
1.329166651,140.4148712,
1.330833316,137.8117828,
1.3325001,139.0397034,
1.334166765,139.4843597,
1.335833311,139.1463776,
1.337499976,140.0028687,
1.339166641,138.6595459,
1.340833426,140.294693,
1.342500091,138.5235291,
1.344166636,138.8780975,
1.345833302,138.4228668,
1.347499967,139.3774109,
1.349166751,138.6425171,
1.350833416,137.5439911,
1.352500081,138.3734589,
1.354166627,137.0694275,
1.355833292,138.0923462,
1.357500076,137.8432159,
1.359166741,138.081543,
1.360833406,138.8713531,
1.362499952,137.897049,
1.364166617,138.0966034,
1.365833402,138.0118256,
1.367500067,138.8106537,
1.369166732,137.051712,
1.370833278,138.657547,
1.372499943,138.2215881,
1.374166727,137.3641968,
1.375833392,137.3654938,
1.377500057,136.2425232,
1.379166722,137.7994385,
1.380833268,137.2361908,
1.382500052,136.9774017,
1.384166718,137.408905,
1.385833383,137.7428284,
1.387500048,136.276123,
1.389166594,136.6318359,
1.390833378,136.7326355,
1.392500043,136.5500031,
1.394166708,136.3866119,
1.395833373,136.5057678,
1.397499919,136.1612549,
1.399166703,137.2628937,
1.400833368,135.6445923,
1.402500033,136.4411316,
1.404166698,135.8444977,
1.405833364,135.9639587,
1.407500029,135.0141602,
1.409166694,136.637146,
1.410833359,135.1393738,
1.412500024,137.060379,
1.414166689,135.9241638,
1.415833354,135.5314331,
1.417500019,135.4736023,
1.419166684,134.4200287,
1.420833349,135.7267761,
1.422500014,136.7983704,
1.424166799,136.127182,
1.425833344,135.6546631,
1.42750001,136.6520233,
1.429166675,134.7409973,
1.43083334,135.964035,
1.432500124,136.0149536,
1.43416667,134.9113312,
1.435833335,135.8422546,
1.4375,134.2901611,
1.439166665,135.9588318,
1.440833449,136.4989777,
1.442499995,135.0883942,
1.44416666,136.2138519,
1.445833325,135.7159271,
1.44749999,135.779953,
1.449166775,134.1579895,
1.45083344,134.9833832,
1.452499986,135.0050201,
1.454166651,134.1248322,
1.455833316,136.4406891,
1.4575001,135.6661835,
1.459166765,134.6007843,
1.460833311,134.1017151,
1.462499976,135.5591888,
1.464166641,134.9518585,
1.465833426,134.9983368,
1.467500091,135.0348053,
1.469166636,133.6494141,
1.470833302,134.448349,
1.472499967,134.671402,
1.474166751,134.1593628,
1.475833416,133.8421936,
1.477500081,133.1100464,
1.479166627,133.0702209,
1.480833292,134.135498,
1.482500076,133.813446,
1.484166741,133.0785675,
1.485833406,134.36203,
1.487499952,133.3608704,
1.489166617,133.5471802,
1.490833402,133.1844482,
1.492500067,133.9486847,
1.494166732,134.3336792,
1.495833278,133.2705688,
1.497499943,133.162796,
1.499166727,134.1405182,
1.500833392,133.2386322,
1.502500057,133.3980865,
1.504166722,133.4490509,
1.505833268,133.2927856,
1.507500052,133.971405,
1.509166718,133.8357697,
1.510833383,132.5236816,
1.512500048,134.0935974,
1.514166594,133.7896881,
1.515833378,133.3621521,
1.517500043,133.1877441,
1.519166708,133.4374237,
1.520833373,133.7256317,
1.522499919,133.065506,
1.524166703,134.2991333,
1.525833368,133.7097931,
1.527500033,133.3150482,
1.529166698,134.7821198,
1.530833364,133.6535645,
1.532500029,133.063797,
1.534166694,134.9307251,
1.535833359,132.4114685,
1.537500024,133.0626831,
1.539166689,133.2142944,
1.540833354,133.6571503,
1.542500019,131.9972839,
1.544166684,133.5135345,
1.545833349,132.1490326,
1.547500014,133.4372406,
1.549166799,133.3244629,
1.550833344,131.8568268,
1.55250001,133.191864,
1.554166675,132.5703888,
1.55583334,132.9762726,
1.557500124,133.1048431,
1.55916667,131.1844635,
1.560833335,132.3992462,
1.5625,132.9201965,
1.564166665,132.7375793,
1.565833449,132.6119385,
1.567499995,132.7776947,
1.56916666,132.6132355,
1.570833325,133.2764435,
1.57249999,132.2061615,
1.574166775,132.4069366,
1.57583344,132.0665131,
1.577499986,131.6193085,
1.579166651,132.7191467,
1.580833316,132.2915344,
1.5825001,132.2903442,
1.584166765,132.5174408,
1.585833311,131.3567352,
1.587499976,131.9540863,
1.589166641,132.5486908,
1.590833426,131.4350128,
1.592500091,131.6412659,
1.594166636,132.0426331,
1.595833302,131.2795563,
1.597499967,131.7333069,
1.599166751,131.1969452,
1.600833416,132.0407562,
1.602500081,132.1711884,
1.604166627,132.3404236,
1.605833292,131.579422,
1.607500076,130.9457855,
1.609166741,132.6832428,
1.610833406,131.2636108,
1.612499952,131.6682434,
1.614166617,131.7876587,
1.615833402,132.0074921,
1.617500067,131.093811,
1.619166732,132.1425781,
1.620833278,131.0978851,
1.622499943,132.2800446,
1.624166727,132.0866547,
1.625833392,131.9288177,
1.627500057,132.1314697,
1.629166722,130.7037811,
1.630833268,131.6882324,
1.632500052,132.8994904,
1.634166718,132.1240997,
1.635833383,132.1947632,
1.637500048,131.592865,
1.639166594,133.3337402,
1.640833378,133.3657379,
1.642500043,133.3583069,
1.644166708,131.9296265,
1.645833373,131.3500519,
1.647499919,130.5683441,
1.649166703,130.4830475,
1.650833368,131.7389679,
1.652500033,131.2797699,
1.654166698,130.4244385,
1.655833364,130.6954193,
1.657500029,132.2124481,
1.659166694,131.7153015,
1.660833359,130.6025848,
1.662500024,131.3810272,
1.664166689,130.7347412,
1.665833354,131.7440186,
1.667500019,130.3104401,
1.669166684,131.3784637,
1.670833349,131.5939331,
1.672500014,131.3407898,
1.674166799,130.905426,
1.675833344,130.9827881,
1.67750001,131.2291718,
1.679166675,130.4630737,
1.68083334,132.7646027,
1.682500124,131.6894989,
1.68416667,131.2547913,
1.685833335,131.0383606,
1.6875,132.0539856,
1.689166665,131.042923,
1.690833449,130.1098328,
1.692499995,130.5359344,
1.69416666,131.031662,
1.695833325,131.235611,
1.69749999,130.3808594,
1.699166775,132.920517,
1.70083344,130.9329376,
1.702499986,130.1065521,
1.704166651,131.5346375,
1.705833316,130.3556976,
1.7075001,130.8909302,
1.709166765,130.1841583,
1.710833311,131.2478638,
1.712499976,130.4482422,
1.714166641,130.3180847,
1.715833426,131.2761383,
1.717500091,131.4096375,
1.719166636,130.3892822,
1.720833302,129.9956818,
1.722499967,130.4917603,
1.724166751,131.2150574,
1.725833416,129.6042786,
1.727500081,130.6498871,
1.729166627,129.8441467,
1.730833292,130.4765167,
1.732500076,130.9463043,
1.734166741,130.7744446,
1.735833406,130.542572,
1.737499952,129.9577026,
1.739166617,130.1155396,
1.740833402,130.0599518,
1.742500067,130.7776947,
1.744166732,130.0638733,
1.745833278,130.5519257,
1.747499943,129.7731476,
1.749166727,131.0873413,
1.750833392,130.006897,
1.752500057,130.3277435,
1.754166722,130.533783,
1.755833268,130.0157166,
1.757500052,130.6810303,
1.759166718,130.4476013,
1.760833383,129.9701385,
1.762500048,130.2066193,
1.764166594,130.0843506,
1.765833378,131.1240997,
1.767500043,129.5224152,
1.769166708,129.8268738,
1.770833373,130.3782806,
1.772499919,129.2585297,
1.774166703,129.6296234,
1.775833368,130.1375122,
1.777500033,130.1198578,
1.779166698,129.1621399,
1.780833364,130.2108002,
1.782500029,130.1295319,
1.784166694,130.040451,
1.785833359,129.9777985,
1.787500024,130.4664307,
1.789166689,130.2032928,
1.790833354,130.3613129,
1.792500019,130.6289825,
1.794166684,129.2120514,
1.795833349,129.8240662,
1.797500014,129.5639954,
1.799166799,130.7113342,
1.800833344,131.1982117,
1.80250001,130.088913,
1.804166675,129.540451,
1.80583334,128.9384613,
1.807500124,129.0934906,
1.80916667,128.2424316,
1.810833335,129.5847321,
1.8125,129.6753082,
1.814166665,129.5323181,
1.815833449,130.0963745,
1.817499995,129.4601593,
1.81916666,129.313858,
1.820833325,129.9443054,
1.82249999,130.5599213,
1.824166775,129.1499329,
1.82583344,130.0426636,
1.827499986,130.3404846,
1.829166651,129.6584625,
1.830833316,128.9203491,
1.8325001,130.903595,
1.834166765,130.0471649,
1.835833311,129.3889771,
1.837499976,128.5387268,
1.839166641,129.0324554,
1.840833426,129.2090912,
1.842500091,128.5114746,
1.844166636,129.6419525,
1.845833302,129.2360535,
1.847499967,129.7171173,
1.849166751,129.3883667,
1.850833416,128.65625,
1.852500081,128.8641052,
1.854166627,129.2264557,
1.855833292,129.4379425,
1.857500076,130.114212,
1.859166741,129.0223236,
1.860833406,129.3542175,
1.862499952,129.4151611,
1.864166617,129.7009583,
1.865833402,129.1454926,
1.867500067,129.2940369,
1.869166732,128.9473114,
1.870833278,129.3878632,
1.872499943,128.9226379,
1.874166727,128.9265747,
1.875833392,128.8406982,
1.877500057,130.0105133,
1.879166722,128.5225983,
1.880833268,129.2302094,
1.882500052,128.7615814,
1.884166718,128.7822113,
1.885833383,128.519516,
1.887500048,127.9251862,
1.889166594,127.8696213,
1.890833378,128.819809,
1.892500043,128.8105469,
1.894166708,129.3610687,
1.895833373,129.0488129,
1.897499919,129.3672485,
1.899166703,129.5677185,
1.900833368,128.9885254,
1.902500033,128.6192627,
1.904166698,129.5998535,
1.905833364,129.7788239,
1.907500029,127.9635544,
1.909166694,128.8513641,
1.910833359,128.8768005,
1.912500024,129.7692413,
1.914166689,129.5105286,
1.915833354,129.0748749,
1.917500019,129.4168091,
1.919166684,129.0231934,
1.920833349,129.1304626,
1.922500014,129.3441772,
1.924166799,130.2784119,
1.925833344,129.7014008,
1.92750001,129.1625977,
1.929166675,129.9589691,
1.93083334,129.0832977,
1.932500124,128.8079071,
1.93416667,129.5282593,
1.935833335,128.6878357,
1.9375,128.8159943,
1.939166665,129.407486,
1.940833449,128.5710754,
1.942499995,128.9406586,
1.94416666,127.441597,
1.945833325,128.4979248,
1.94749999,129.2259216,
1.949166775,129.2201538,
1.95083344,128.5909576,
1.952499986,130.1664429,
1.954166651,129.6705627,
1.955833316,129.141098,
1.9575001,128.6671906,
1.959166765,129.4532623,
1.960833311,129.1638794,
1.962499976,128.7769928,
1.964166641,129.5840454,
1.965833426,129.3593445,
1.967500091,128.4246063,
1.969166636,129.4095154,
1.970833302,128.8078918,
1.972499967,128.3582764,
1.974166751,128.6574707,
1.975833416,128.6530762,
1.977500081,128.9211884,
1.979166627,129.3186188,
1.980833292,128.8358459,
1.982500076,128.4575195,
1.984166741,129.0538177,
1.985833406,129.9851837,
1.987499952,128.8404999,
1.989166617,128.2416992,
1.990833402,128.4815826,
1.992500067,129.3076019,
1.994166732,128.2267151,
1.995833278,128.8516998,
1.997499943,128.7476654,
1.999166727,129.6575623,
2.000833273,129.1692352,
2.002500057,129.3769836,
2.004166603,127.2881927,
2.005833387,128.390564,
2.007500172,128.1029816,
2.009166718,129.1564178,
2.010833263,128.7628937,
2.012500048,129.1324615,
2.014166594,129.8128204,
2.015833378,128.7317505,
2.017500162,129.0443268,
2.019166708,129.5582581,
2.020833254,129.143158,
2.022500038,128.1906891,
2.024166822,128.7630463,
2.025833368,128.58078,
2.027499914,128.4395294,
2.029166698,127.7652054,
2.030833244,128.5583954,
2.032500029,128.4854431,
2.034166813,127.816452,
2.035833359,128.8878021,
2.037499905,128.2121277,
2.039166689,127.6793594,
2.040833473,127.2051468,
2.042500019,128.5012665,
2.044166803,128.7885284,
2.045833349,128.4922485,
2.047499895,127.3756638,
2.049166679,127.86129,
2.050833464,128.2995148,
2.05250001,128.1995087,
2.054166555,126.672554,
2.05583334,128.9268341,
2.057500124,127.7853851,
2.05916667,128.0081635,
2.060833454,129.3860474,
2.0625,127.8261414,
2.064166546,128.8349152,
2.06583333,129.1218262,
2.067500114,128.8498383,
2.06916666,127.6850281,
2.070833445,128.5209351,
2.07249999,127.8086472,
2.074166775,128.2841492,
2.075833321,127.6767426,
2.077500105,128.0099945,
2.079166651,127.5783005,
2.080833197,128.2083588,
2.082499981,129.4855042,
2.084166765,128.1471405,
2.085833311,127.5897446,
2.087500095,127.2090836,
2.089166641,128.2681732,
2.090833426,128.056076,
2.092499971,127.8577271,
2.094166756,127.3991928,
2.095833302,128.6352386,
2.097500086,128.5986023,
2.099166632,127.8269424,
2.100833416,127.6585464,
2.102499962,127.5182495,
2.104166746,128.4926605,
2.105833292,129.0485535,
2.107500076,128.1389771,
2.109166622,127.8095245,
2.110833406,126.5487061,
2.112499952,128.176178,
2.114166737,130.4578857,
2.115833521,127.8973846,
2.117500067,127.3487473,
2.119166613,126.7193527,
2.120833397,127.9799194,
2.122499943,127.6475906,
2.124166727,126.7101898,
2.125833273,128.6416016,
2.127500057,128.1095581,
2.129166603,127.9565506,
2.130833387,127.619339,
2.132500172,128.4704742,
2.134166718,128.2430878,
2.135833502,128.0801392,
2.137500048,127.8066483,
2.139166832,127.4524155,
2.140833378,128.0341949,
2.142500162,127.5435257,
2.144166708,128.7094727,
2.145833254,128.2507019,
2.147500038,127.7701874,
2.149166584,128.0692902,
2.150833368,127.9971466,
2.152500153,128.111908,
2.154166698,128.111145,
2.155833483,127.7179413,
2.157500029,126.7521667,
2.159166813,128.2128448,
2.160833597,128.8906708,
2.162499905,128.3143005,
2.164166689,126.5095596,
2.165833235,128.5189362,
2.167500019,128.5621185,
2.169166803,127.7238007,
2.170833349,126.4314499,
2.172500134,129.451355,
2.174166679,128.7017365,
2.175833464,127.7713928,
2.177500248,127.552063,
2.179166555,127.6020889,
2.18083334,128.1027374,
2.182499886,127.730545,
2.18416667,128.3533325,
2.185833454,128.6210175,
2.1875,128.4232635,
2.189166784,128.1426392,
2.19083333,127.6207733,
2.192500114,128.3139801,
2.194166899,128.0539856,
2.195833445,127.3932343,
2.19749999,127.0896759,
2.199166536,128.2854309,
2.200833321,127.349762,
2.202500105,127.4538956,
2.204166651,126.1670456,
2.205833435,127.9062042,
2.207499981,127.9463196,
2.209166765,127.5818024,
2.210833549,127.5744705,
2.212500095,128.9189453,
2.21416688,127.1616058,
2.215833187,127.5263901,
2.217499971,127.5103073,
2.219166756,127.6487122,
2.220833302,128.4934387,
2.222500086,127.2525635,
2.224166632,128.2242889,
2.225833416,127.1407013,
2.2275002,128.3978119,
2.229166746,128.1662598,
2.23083353,128.4515839,
2.232499838,128.1504517,
2.234166622,127.8383408,
2.235833406,126.6702881,
2.237499952,126.1059494,
2.239166737,126.9679184,
2.240833282,127.4146576,
2.242500067,127.4430161,
2.244166851,127.65345,
2.245833397,128.6488037,
2.247500181,127.7410355,
2.249166727,127.9742432,
2.250833273,128.3132172,
2.252500057,128.4812012,
2.254166603,126.5756912,
2.255833387,128.455246,
2.257499933,128.0409393,
2.259166718,128.437027,
2.260833502,128.2289429,
2.262500048,127.1925583,
2.264166832,128.017746,
2.265833378,128.0943451,
2.267500162,128.1235352,
2.269166708,128.1970978,
2.270833254,128.1923828,
2.272500038,127.2009583,
2.274166584,128.1641998,
2.275833368,127.520874,
2.277500153,127.0193787,
2.279166698,127.210556,
2.280833483,127.9047318,
2.282500029,127.9352036,
2.284166813,127.8724823,
2.285833597,127.7323685,
2.287499905,128.11026,
2.289166689,128.3220825,
2.290833235,128.4129028,
2.292500019,127.6400986,
2.294166803,127.5871964,
2.295833349,127.0202103,
2.297500134,127.4251175,
2.299166679,126.5870743,
2.300833464,128.708725,
2.302500248,127.2133255,
2.304166555,128.330307,
2.30583334,127.4609528,
2.307499886,128.7406006,
2.30916667,127.6381607,
2.310833454,126.2207184,
2.3125,127.1394806,
2.314166784,128.3033905,
2.31583333,127.2778397,
2.317500114,127.7690353,
2.319166899,127.3496628,
2.320833445,127.4000397,
2.32249999,128.2691193,
2.324166536,127.5651932,
2.325833321,126.8806915,
2.327500105,126.8093414,
2.329166651,127.5681839,
2.330833435,127.5222931,
2.332499981,128.2270355,
2.334166765,127.2807159,
2.335833549,127.9489212,
2.337500095,127.5093079,
2.33916688,127.9812927,
2.340833187,126.9053497,
2.342499971,126.893219,
2.344166756,127.457634,
2.345833302,127.9207458,
2.347500086,128.3927307,
2.349166632,127.9741821,
2.350833416,128.0383759,
2.3525002,127.8607407,
2.354166746,127.2028656,
2.35583353,125.8174515,
2.357499838,126.8084641,
2.359166622,126.357811,
2.360833406,127.649826,
2.362499952,127.5558624,
2.364166737,127.0638275,
2.365833282,127.7134857,
2.367500067,127.9953995,
2.369166851,127.0597992,
2.370833397,128.1536255,
2.372500181,126.716835,
2.374166727,127.3630524,
2.375833273,127.1785812,
2.377500057,127.5368652,
2.379166603,126.412796,
2.380833387,127.9796219,
2.382499933,127.7897949,
2.384166718,127.3607788,
2.385833502,128.3538971,
2.387500048,128.02771,
2.389166832,126.892746,
2.390833378,126.3156662,
2.392500162,127.5830002,
2.394166708,127.6244812,
2.395833254,128.3071899,
2.397500038,127.96138,
2.399166584,127.3915939,
2.400833368,127.1351013,
2.402500153,126.9436646,
2.404166698,127.0830612,
2.405833483,126.7296982,
2.407500029,127.8188705,
2.409166813,126.7916718,
2.410833597,128.0171356,
2.412499905,127.8446884,
2.414166689,128.274765,
2.415833235,127.5056763,
2.417500019,127.584877,
2.419166803,127.0066223,
2.420833349,127.5796738,
2.422500134,128.0962524,
2.424166679,125.8401413,
2.425833464,126.8643723,
2.427500248,127.1475525,
2.429166555,127.4140472,
2.43083334,126.7107697,
2.432499886,127.531517,
2.43416667,126.3402405,
2.435833454,126.3525925,
2.4375,127.9072647,
2.439166784,127.7415009,
2.44083333,126.9949799,
2.442500114,127.7149048,
2.444166899,127.1372757,
2.445833445,127.6483231,
2.44749999,128.2588196,
2.449166536,126.5042877,
2.450833321,128.131546,
2.452500105,127.6368027,
2.454166651,126.6813126,
2.455833435,127.2009201,
2.457499981,127.9734344,
2.459166765,126.7166748,
2.460833549,127.3528519,
2.462500095,127.4374161,
2.46416688,127.1645737,
2.465833187,126.7725525,
2.467499971,127.8280334,
2.469166756,127.4078674,
2.470833302,127.5482483,
2.472500086,126.9986343,
2.474166632,126.6362228,
2.475833416,127.0609055,
2.4775002,127.181366,
2.479166746,127.2927246,
2.48083353,127.7394257,
2.482499838,126.3893661,
2.484166622,127.9815903,
2.485833406,127.487648,
2.487499952,126.6898193,
2.489166737,127.1913528,
2.490833282,126.5671692,
2.492500067,126.3478394,
2.494166851,127.405777,
2.495833397,126.9995728,
2.497500181,127.6285477,
2.499166727,127.0169144,
2.500833273,126.8061676,
2.502500057,128.4677887,
2.504166603,127.1043701,
2.505833387,127.5187607,
2.507499933,125.6834869,
2.509166718,127.6319199,
2.510833502,126.980484,
2.512500048,125.9979935,
2.514166832,126.0651474,
2.515833378,126.9940872,
2.517500162,128.6172943,
2.519166708,127.8501282,
2.520833254,127.6633453,
2.522500038,126.1887436,
2.524166584,127.5005798,
2.525833368,127.4283218,
2.527500153,126.9918976,
2.529166698,126.2457199,
2.530833483,127.0011673,
2.532500029,127.6669769,
2.534166813,126.7946396,
2.535833597,127.2722931,
2.537499905,126.9507294,
2.539166689,127.2907257,
2.540833235,127.9807358,
2.542500019,126.880867,
2.544166803,126.8474579,
2.545833349,127.8297424,
2.547500134,127.9247665,
2.549166679,127.159996,
2.550833464,127.400444,
2.552500248,127.6183548,
2.554166555,127.1193008,
2.55583334,127.3762436,
2.557499886,127.3610764,
2.55916667,127.1331329,
2.560833454,127.3353577,
2.5625,127.6272964,
2.564166784,126.0553894,
2.56583333,127.7719421,
2.567500114,127.2853012,
2.569166899,128.0032349,
2.570833445,127.2316742,
2.57249999,126.8894348,
2.574166536,126.4550858,
2.575833321,127.1577759,
2.577500105,126.5534592,
2.579166651,127.1037292,
2.580833435,127.256813,
2.582499981,126.9217911,
2.584166765,127.3889236,
2.585833549,126.1760712,
2.587500095,126.7572937,
2.58916688,127.857048,
2.590833187,127.6350327,
2.592499971,126.4859772,
2.594166756,126.5126877,
2.595833302,127.0914078,
2.597500086,126.9106903,
2.599166632,126.4421921,
2.600833416,126.4620285,
2.6025002,126.2884445,
2.604166746,128.1521606,
2.60583353,127.5160904,
2.607499838,126.0583115,
2.609166622,127.3407211,
2.610833406,126.2735291,
2.612499952,127.4775848,
2.614166737,126.3089294,
2.615833282,127.7518997,
2.617500067,127.3159103,
2.619166851,127.9115982,
2.620833397,127.4884338,
2.622500181,126.5527039,
2.624166727,127.4241943,
2.625833273,127.7453918,
2.627500057,126.0715866,
2.629166603,127.2656631,
2.630833387,127.3499603,
2.632499933,127.2367401,
2.634166718,126.9784698,
2.635833502,126.4783707,
2.637500048,126.1401062,
2.639166832,126.1124344,
2.640833378,126.27491,
2.642500162,126.6493835,
2.644166708,127.250206,
2.645833254,127.3485107,
2.647500038,126.1277466,
2.649166584,126.8080597,
2.650833368,127.1825256,
2.652500153,126.634079,
2.654166698,127.7937012,
2.655833483,126.5981064,
2.657500029,126.3243713,
2.659166813,127.3591385,
2.660833597,126.2108231,
2.662499905,127.810524,
2.664166689,127.6196823,
2.665833235,126.5570221,
2.667500019,126.0674591,
2.669166803,126.6360855,
2.670833349,127.0488205,
2.672500134,127.0127182,
2.674166679,127.0133591,
2.675833464,126.449852,
2.677500248,126.7943115,
2.679166555,126.8138428,
2.68083334,127.7529297,
2.682499886,126.522171,
2.68416667,125.9207458,
2.685833454,127.3350143,
2.6875,127.6262817,
2.689166784,126.8265076,
2.69083333,127.2806244,
2.692500114,127.0960388,
2.694166899,127.2695694,
2.695833445,125.5602951,
2.69749999,126.6297073,
2.699166536,126.086113,
2.700833321,126.8970642,
2.702500105,126.0581894,
2.704166651,128.1662292,
2.705833435,127.4833832,
2.707499981,127.5830536,
2.709166765,126.086113,
2.710833549,126.170578,
2.712500095,126.0637512,
2.71416688,126.3360519,
2.715833187,126.8953552,
2.717499971,126.7340317,
2.719166756,126.5854416,
2.720833302,126.2089767,
2.722500086,127.4590759,
2.724166632,126.505806,
2.725833416,126.5459824,
2.7275002,126.3958511,
2.729166746,126.8087769,
2.73083353,127.5560074,
2.732499838,126.7892151,
2.734166622,125.3284378,
2.735833406,127.950325,
2.737499952,126.0239792,
2.739166737,127.2122269,
2.740833282,126.6055222,
2.742500067,127.3525391,
2.744166851,127.7193756,
2.745833397,125.1761322,
2.747500181,127.0304031,
2.749166727,126.7792435,
2.750833273,127.5919495,
2.752500057,126.7380142,
2.754166603,126.8611221,
2.755833387,126.0965881,
2.757499933,126.6219177,
2.759166718,126.184967,
2.760833502,126.9910965,
2.762500048,125.9527817,
2.764166832,126.7425537,
2.765833378,126.0640335,
2.767500162,127.8737488,
2.769166708,126.94487,
2.770833254,127.104599,
2.772500038,126.2945099,
2.774166584,127.0388947,
2.775833368,127.1129074,
2.777500153,126.5456543,
2.779166698,125.9147797,
2.780833483,125.7774506,
2.782500029,127.6888733,
2.784166813,126.9598312,
2.785833597,126.9073944,
2.787499905,127.6993179,
2.789166689,125.9254837,
2.790833235,127.3756332,
2.792500019,127.1445007,
2.794166803,126.72995,
2.795833349,127.1499557,
2.797500134,126.615036,
2.799166679,128.2303467,
2.800833464,126.8688431,
2.802500248,127.9037018,
2.804166555,126.7064819,
2.80583334,127.1452484,
2.807499886,127.4309921,
2.80916667,126.3459015,
2.810833454,126.5139008,
2.8125,126.564682,
2.814166784,127.907814,
2.81583333,127.3996964,
2.817500114,126.3925247,
2.819166899,126.9421158,
2.820833445,127.8936996,
2.82249999,128.4154968,
2.824166536,126.8777847,
2.825833321,126.6366653,
2.827500105,125.9210739,
2.829166651,126.3942566,
2.830833435,125.9433441,
2.832499981,127.129715,
2.834166765,126.2477188,
2.835833549,126.59021,
2.837500095,126.8244247,
2.83916688,126.5285797,
2.840833187,125.9080582,
2.842499971,127.115387,
2.844166756,127.491188,
2.845833302,126.5807571,
2.847500086,127.5609589,
2.849166632,127.5402145,
2.850833416,127.0290909,
2.8525002,125.2442474,
2.854166746,126.2484207,
2.85583353,127.192688,
2.857499838,127.0979614,
2.859166622,125.4845886,
2.860833406,127.4662933,
2.862499952,127.4257736,
2.864166737,125.9134445,
2.865833282,127.1623077,
2.867500067,126.8030548,
2.869166851,126.596405,
2.870833397,127.1899338,
2.872500181,127.2099304,
2.874166727,127.0485687,
2.875833273,126.2246094,
2.877500057,127.2511368,
2.879166603,126.6459503,
2.880833387,128.4638977,
2.882499933,127.4396591,
2.884166718,126.5174484,
2.885833502,125.9061966,
2.887500048,126.5559464,
2.889166832,126.7753983,
2.890833378,126.4303055,
2.892500162,126.667511,
2.894166708,127.7532578,
2.895833254,126.8407974,
2.897500038,127.4250565,
2.899166584,127.2269821,
2.900833368,126.5806274,
2.902500153,127.0679703,
2.904166698,127.266243,
2.905833483,126.8752975,
2.907500029,125.7829514,
2.909166813,127.0876694,
2.910833597,128.250351,
2.912499905,126.6352844,
2.914166689,125.9566727,
2.915833235,126.9473114,
2.917500019,126.365509,
2.919166803,127.0064392,
2.920833349,126.8498459,
2.922500134,127.2889786,
2.924166679,126.2089615,
2.925833464,126.4520569,
2.927500248,126.6271439,
2.929166555,128.474823,
2.93083334,127.0112991,
2.932499886,126.1855392,
2.93416667,127.3431778,
2.935833454,126.0665359,
2.9375,126.618309,
2.939166784,125.7720566,
2.94083333,126.5647888,
2.942500114,127.1188431,
2.944166899,125.9279404,
2.945833445,126.9176025,
2.94749999,126.9061127,
2.949166536,126.4090118,
2.950833321,125.5521622,
2.952500105,126.0483398,
2.954166651,126.7510681,
2.955833435,126.7627792,
2.957499981,125.9551315,
2.959166765,127.1029587,
2.960833549,125.972908,
2.962500095,126.9233856,
2.96416688,127.3616867,
2.965833187,127.481369,
2.967499971,127.2806396,
2.969166756,125.054985,
2.970833302,126.717804,
2.972500086,127.3765564,
2.974166632,126.4223022,
2.975833416,127.8113251,
2.9775002,126.5231552,
2.979166746,126.559494,
2.98083353,126.4027023,
2.982499838,126.8109207,
2.984166622,125.9405289,
2.985833406,126.5981827,
2.987499952,125.3501205,
2.989166737,126.153511,
2.990833282,126.7636108,
2.992500067,126.2819443,
2.994166851,126.0486984,
2.995833397,126.4825592,
2.997500181,126.7126236,
2.999166727,127.1466599,
3.000833273,125.7437744,
3.002500057,126.1291351,
3.004166603,126.6408081,
3.005833387,127.1934509,
3.007499933,126.9292984,
3.009166718,126.9099426,
3.010833502,125.727356,

