1,,
Time (min),Intensity (a.u.),
0.0008333333535,28.37647629,
0.002500000177,29.40793228,
0.004166666884,29.02620125,
0.005833333358,29.02798843,
0.007500000298,29.46676064,
0.009166667238,29.22460938,
0.01083333418,29.29646301,
0.01250000019,29.1313076,
0.01416666713,29.2696209,
0.01583333313,28.785326,
0.01750000194,29.16172028,
0.01916666701,29.03100967,
0.02083333395,29.17921448,
0.02250000089,30.03134155,
0.02416666783,29.14164925,
0.02583333477,29.34625816,
0.02749999985,29.00813103,
0.02916666679,29.08306503,
0.03083333373,28.95251083,
0.03250000253,29.36499405,
0.03416666761,28.7694931,
0.03583333641,29.16963959,
0.03750000149,28.91865158,
0.03916667029,29.18314552,
0.04083333537,29.0669899,
0.04250000045,29.00482941,
0.04416666925,29.1081028,
0.04583333433,29.28573036,
0.04750000313,28.91000366,
0.04916666821,29.08512688,
0.05083333328,28.85694504,
0.05250000209,28.45046425,
0.05416666716,29.03948212,
0.05583333597,29.04209518,
0.05750000104,29.18338013,
0.05916666612,28.90097427,
0.06083333492,29.1798439,
0.0625,29.20541763,
0.06416667253,29.15571022,
0.0658333376,29.15727997,
0.06750000268,29.28015518,
0.06916666776,28.88712692,
0.07083333284,29.17442322,
0.07249999791,29.0061245,
0.07416667044,28.82369423,
0.07583333552,29.64162445,
0.0775000006,29.0730896,
0.07916666567,29.39656067,
0.08083333075,29.24814606,
0.08250000328,29.24998474,
0.08416666836,28.90484238,
0.08583333343,29.25982475,
0.08749999851,29.19035339,
0.08916666359,29.70113945,
0.09083333611,29.23927689,
0.09250000119,29.21842003,
0.09416666627,29.21542931,
0.09583333135,29.08156204,
0.09749999642,28.98542023,
0.09916666895,29.60908318,
0.100833334,28.95394325,
0.1024999991,28.72485542,
0.1041666642,29.29484177,
0.1058333293,29.12936592,
0.1075000018,29.21521568,
0.1091666669,28.90754509,
0.1108333319,28.94628334,
0.112499997,29.14364624,
0.1141666621,28.97879601,
0.1158333346,28.88232422,
0.1174999997,29.5194149,
0.1191666648,29.27467155,
0.1208333299,29.05824852,
0.1224999949,29.314188,
0.1241666749,29.09145546,
0.1258333325,28.8060894,
0.1274999976,28.87981415,
0.1291666627,29.25210381,
0.1308333278,29.24506569,
0.1325000077,29.13386345,
0.1341666728,29.14458847,
0.1358333379,29.16896439,
0.137500003,28.85508156,
0.1391666681,29.55832291,
0.1408333331,29.00831604,
0.1424999982,29.53780556,
0.1441666782,29.47105026,
0.1458333284,29.29043579,
0.1475000083,28.98490524,
0.1491666585,29.03079605,
0.1508333385,28.60898972,
0.1525000036,28.71079063,
0.1541666687,29.00549889,
0.1558333337,29.48994446,
0.1574999988,29.12290001,
0.1591666639,28.91936684,
0.1608333439,29.04087639,
0.162499994,28.9875145,
0.164166674,28.92128944,
0.1658333242,29.08329773,
0.1675000042,28.69173241,
0.1691666692,29.11121368,
0.1708333343,29.75856018,
0.1724999994,28.85064888,
0.1741666645,28.95064354,
0.1758333296,29.46374512,
0.1775000095,29.18018723,
0.1791666597,28.59749985,
0.1808333397,28.95508385,
0.1824999899,29.26965141,
0.1841666698,29.55161095,
0.1858333498,29.03337669,
0.1875,29.28237343,
0.18916668,29.22243881,
0.1908333302,29.46162033,
0.1925000101,29.19235992,
0.1941666752,29.01596832,
0.1958333403,28.58224869,
0.1975000054,29.54099274,
0.1991666704,29.22364426,
0.2008333355,29.14961052,
0.2025000155,29.11762428,
0.2041666657,29.19243622,
0.2058333457,29.37825966,
0.2074999958,28.77586937,
0.2091666758,29.3081665,
0.2108333409,28.54206085,
0.212500006,29.1234169,
0.214166671,28.80908203,
0.2158333361,28.9051857,
0.2175000012,28.98411179,
0.2191666812,28.96604156,
0.2208333313,28.79441452,
0.2225000113,28.71121597,
0.2241666615,28.9860363,
0.2258333415,29.31564713,
0.2275000066,29.38434219,
0.2291666716,29.41902924,
0.2308333367,29.60956192,
0.2325000018,28.94826889,
0.2341666669,29.35033417,
0.2358333468,29.02169609,
0.237499997,29.13780785,
0.239166677,29.4128418,
0.2408333272,29.10752869,
0.2425000072,29.32814026,
0.2441666722,29.12492752,
0.2458333373,28.89514351,
0.2475000024,28.92253494,
0.2491666675,29.18410683,
0.2508333325,29.00764275,
0.2524999976,29.02065086,
0.2541666627,29.4918251,
0.2558333278,28.94645119,
0.2574999928,29.02319717,
0.2591666579,29.49841881,
0.2608333528,28.98098373,
0.2624999881,28.81650925,
0.264166683,29.49332619,
0.2658333182,29.13240242,
0.2675000131,29.45956421,
0.2691666484,29.39728928,
0.2708333433,29.42687225,
0.2725000083,29.3688736,
0.2741666734,28.42040825,
0.2758333385,29.08818245,
0.2775000036,29.18193245,
0.2791666687,29.14241219,
0.2808333337,29.0753212,
0.2824999988,29.53206444,
0.2841666937,29.07725334,
0.285833329,28.55211449,
0.287499994,28.92332458,
0.2891666591,29.28749084,
0.290833354,28.8467865,
0.2925000191,29.3644886,
0.2941666543,29.35569191,
0.2958333194,29.45270538,
0.2975000143,29.08626366,
0.2991666794,28.80300903,
0.3008333445,28.73591042,
0.3024999797,29.37304306,
0.3041666746,29.19573021,
0.3058333397,29.21810913,
0.3075000048,29.45916748,
0.3091666996,29.06913376,
0.3108333349,28.95405769,
0.3125,29.31020927,
0.3141666651,29.83677483,
0.31583336,29.40831566,
0.317500025,29.191576,
0.3191666603,28.55999756,
0.3208333254,29.22247887,
0.3225000203,29.04569435,
0.3241666853,28.80695724,
0.3258333504,28.45671082,
0.3274999857,29.28968048,
0.3291666806,29.13486099,
0.3308333457,29.52494621,
0.3325000107,28.98021317,
0.3341666758,29.36209297,
0.3358333409,29.10787392,
0.337500006,28.89772034,
0.339166671,28.91451836,
0.3408333361,29.96435738,
0.342500031,28.77211952,
0.3441666663,28.94922638,
0.3458333313,28.73604774,
0.3474999964,29.54648781,
0.3491666913,29.17393684,
0.3508333564,29.67439842,
0.3524999917,29.508358,
0.3541666567,29.13839722,
0.3558333516,29.10928535,
0.3575000167,29.02065277,
0.3591666818,29.17282677,
0.360833317,29.06099701,
0.3625000119,28.68911552,
0.364166677,29.34924889,
0.3658333421,29.2057476,
0.3675000072,29.00561523,
0.3691666722,29.08995056,
0.3708333373,28.99552345,
0.3725000024,28.61184311,
0.3741666675,28.98576736,
0.3758333623,29.02235031,
0.3774999976,29.0886097,
0.3791666627,28.69270515,
0.3808333278,29.15120506,
0.3825000226,28.97289085,
0.3841666877,28.97433281,
0.385833323,29.30113983,
0.3874999881,29.30418205,
0.389166683,29.24279404,
0.390833348,29.42098808,
0.3925000131,28.99472618,
0.3941666484,28.93559647,
0.3958333433,29.39457893,
0.3975000083,29.03475571,
0.3991666734,28.90078735,
0.4008333385,29.27983284,
0.4025000036,29.47049904,
0.4041666687,28.98654747,
0.4058333337,29.58878136,
0.4074999988,28.87412071,
0.4091666937,29.25568581,
0.410833329,29.42755318,
0.412499994,29.48980522,
0.4141666591,29.30093575,
0.415833354,29.25703049,
0.4175000191,28.67374802,
0.4191666543,29.24959564,
0.4208333194,28.76094055,
0.4225000143,28.31171036,
0.4241666794,28.95309639,
0.4258333445,28.89164352,
0.4274999797,28.91201401,
0.4291666746,29.11333466,
0.4308333397,29.07868385,
0.4325000048,28.94454002,
0.4341666996,29.35350418,
0.4358333349,29.38718605,
0.4375,28.71801758,
0.4391666651,29.10856247,
0.44083336,29.38372612,
0.442500025,29.49597168,
0.4441666603,29.06612968,
0.4458333254,29.0310421,
0.4475000203,29.54791641,
0.4491666853,28.77311325,
0.4508333504,29.01420975,
0.4524999857,28.92157745,
0.4541666806,29.70433807,
0.4558333457,29.51913261,
0.4575000107,29.11267281,
0.4591666758,28.96586418,
0.4608333409,28.9086113,
0.462500006,29.66982269,
0.464166671,29.33667374,
0.4658333361,29.18236351,
0.467500031,29.02212715,
0.4691666663,28.69786072,
0.4708333313,29.13900948,
0.4724999964,28.52090454,
0.4741666913,29.3831501,
0.4758333564,29.25298119,
0.4774999917,29.16656876,
0.4791666567,29.05371857,
0.4808333516,29.03340912,
0.4825000167,29.0401268,
0.4841666818,29.67288971,
0.485833317,29.28897858,
0.4875000119,29.24386978,
0.489166677,29.06048203,
0.4908333421,28.58062744,
0.4925000072,28.87492752,
0.4941666722,29.38124084,
0.4958333373,28.85651016,
0.4975000024,29.19807434,
0.4991666675,29.10820007,
0.5008333325,29.40753174,
0.5024999976,29.37766075,
0.5041666627,29.02968407,
0.5058333278,29.46229744,
0.5074999928,29.44863892,
0.5091666579,28.7993145,
0.510833323,29.21229172,
0.5124999881,28.86330795,
0.5141666532,28.72759819,
0.5158333182,29.15207481,
0.5175000429,28.87080765,
0.5191666484,28.47493744,
0.5208333135,29.45881271,
0.5224999785,29.32312584,
0.5241667032,28.93958664,
0.5258333683,29.48745918,
0.5274999738,29.21626282,
0.5291666389,28.85889435,
0.5308333635,29.01910973,
0.5325000286,29.54149818,
0.5341666341,28.92675781,
0.5358333588,29.14886665,
0.5375000238,29.32680702,
0.5391666889,29.52684593,
0.540833354,29.2145195,
0.5424999595,29.2966423,
0.5441666842,29.41376305,
0.5458333492,29.36230659,
0.5475000143,29.33461189,
0.5491666794,29.27597618,
0.5508333445,28.91969109,
0.5525000095,29.52210426,
0.5541666746,29.35421753,
0.5558333993,28.89269257,
0.5575000048,28.64632988,
0.5591666698,29.44787407,
0.5608333349,29.02471924,
0.5625,28.98489761,
0.5641667247,29.17715263,
0.5658333302,29.03310776,
0.5674999952,29.4011116,
0.5691667199,29.06011391,
0.5708333254,29.45794487,
0.5725000501,28.97621346,
0.5741666555,28.76716614,
0.5758333206,29.16432953,
0.5775000453,29.24152756,
0.5791666508,28.67545891,
0.5808333755,29.1189785,
0.5825000405,29.02839279,
0.584166646,28.87831116,
0.5858333707,28.8737545,
0.5874999762,29.50725174,
0.5891667008,29.21375275,
0.5908333659,29.0458622,
0.5924999714,29.29686356,
0.5941666961,29.33090591,
0.5958333611,29.03586769,
0.5975000262,28.98525047,
0.5991666913,29.07025337,
0.6008332968,28.81515121,
0.6025000215,29.24579239,
0.6041666865,29.07913208,
0.6058333516,29.07856941,
0.6075000167,28.84921837,
0.6091666818,28.66582489,
0.6108333468,28.66041946,
0.6125000119,29.30528831,
0.614166677,29.06036949,
0.6158333421,28.87257004,
0.6175000072,29.09804344,
0.6191666722,29.33991051,
0.6208333373,29.05825996,
0.622500062,28.92347336,
0.6241666675,29.57387543,
0.6258333325,29.48479462,
0.6274999976,29.24816513,
0.6291666627,29.06617546,
0.6308333874,29.20672035,
0.6324999928,29.30119133,
0.6341666579,29.22498894,
0.6358333826,29.20774841,
0.6374999881,29.11795235,
0.6391667128,29.45182419,
0.6408333182,29.07343674,
0.6424999833,29.26722717,
0.644166708,29.33352661,
0.6458333135,29.57189178,
0.6475000381,29.37402534,
0.6491667032,28.88129807,
0.6508333087,28.68583107,
0.6525000334,28.9939537,
0.6541666389,29.2340889,
0.6558333635,28.75709152,
0.6575000286,29.45739174,
0.6591666341,29.3233223,
0.6608333588,29.04556847,
0.6625000238,29.38287544,
0.6641666889,29.09932137,
0.665833354,29.14074516,
0.6674999595,29.36575127,
0.6691666842,28.94145203,
0.6708333492,29.16970253,
0.6725000143,28.95161247,
0.6741666794,28.89394379,
0.6758333445,28.93502617,
0.6775000095,29.19879532,
0.6791666746,29.70266914,
0.6808333993,29.09714317,
0.6825000048,29.61474228,
0.6841666698,29.57440758,
0.6858333349,29.03933716,
0.6875,29.51515961,
0.6891667247,29.11882973,
0.6908333302,29.14515877,
0.6924999952,28.9858532,
0.6941667199,29.55423737,
0.6958333254,29.27934647,
0.6975000501,28.90394592,
0.6991666555,28.9018383,
0.7008333206,29.34322929,
0.7025000453,28.97615623,
0.7041666508,29.01976967,
0.7058333755,28.85407639,
0.7075000405,29.10078239,
0.709166646,29.00053024,
0.7108333707,29.38243866,
0.7124999762,29.04877472,
0.7141667008,29.08988762,
0.7158333659,28.98134422,
0.7174999714,28.82003021,
0.7191666961,29.18794823,
0.7208333611,28.82572746,
0.7225000262,28.82457924,
0.7241666913,28.83406258,
0.7258332968,29.31504822,
0.7275000215,29.16646767,
0.7291666865,29.27724648,
0.7308333516,29.58492851,
0.7325000167,29.57243156,
0.7341666818,29.64095879,
0.7358333468,29.40011787,
0.7375000119,29.15888977,
0.739166677,29.64903259,
0.7408333421,29.6145134,
0.7425000072,29.44192123,
0.7441666722,29.26219177,
0.7458333373,28.84603882,
0.747500062,29.31846046,
0.7491666675,29.44624329,
0.7508333325,29.26067543,
0.7524999976,28.94216919,
0.7541666627,29.29032326,
0.7558333874,29.79388237,
0.7574999928,28.89738846,
0.7591666579,28.62645912,
0.7608333826,29.4557724,
0.7624999881,28.89943123,
0.7641667128,28.83350563,
0.7658333182,29.54049492,
0.7674999833,29.40841484,
0.769166708,29.50470543,
0.7708333135,29.02928162,
0.7725000381,28.98850632,
0.7741667032,28.50319099,
0.7758333087,28.87485123,
0.7775000334,29.59056854,
0.7791666389,29.62725639,
0.7808333635,29.21143341,
0.7825000286,28.88769341,
0.7841666341,29.30910301,
0.7858333588,29.08218002,
0.7875000238,29.76442146,
0.7891666889,29.1133461,
0.790833354,29.36056519,
0.7924999595,29.2932682,
0.7941666842,29.08213997,
0.7958333492,29.26099014,
0.7975000143,29.33239555,
0.7991666794,28.66185188,
0.8008333445,29.10070229,
0.8025000095,29.44211197,
0.8041666746,29.81702042,
0.8058333993,29.42527771,
0.8075000048,29.4267292,
0.8091666698,29.1534214,
0.8108333349,29.02879524,
0.8125,29.24084854,
0.8141667247,29.12168312,
0.8158333302,29.15387344,
0.8174999952,29.08293533,
0.8191667199,28.97636032,
0.8208333254,28.9430542,
0.8225000501,29.31937218,
0.8241666555,29.34346199,
0.8258333206,28.86261177,
0.8275000453,28.81909943,
0.8291666508,28.81155396,
0.8308333755,28.72382736,
0.8325000405,28.60273933,
0.834166646,29.10987663,
0.8358333707,28.91589355,
0.8374999762,29.43511963,
0.8391667008,29.2452774,
0.8408333659,29.42410278,
0.8424999714,29.60757828,
0.8441666961,29.16129684,
0.8458333611,29.44553566,
0.8475000262,28.61260986,
0.8491666913,29.29666519,
0.8508332968,29.11320877,
0.8525000215,29.53854179,
0.8541666865,28.89301872,
0.8558333516,29.06061745,
0.8575000167,29.31312943,
0.8591666818,29.59920311,
0.8608333468,30.01672935,
0.8625000119,28.94097137,
0.864166677,29.20303917,
0.8658333421,29.36707497,
0.8675000072,29.33924294,
0.8691666722,28.99957466,
0.8708333373,28.90603256,
0.872500062,29.22994423,
0.8741666675,29.5452919,
0.8758333325,29.6422596,
0.8774999976,28.28362465,
0.8791666627,28.89334869,
0.8808333874,29.25439072,
0.8824999928,29.19257164,
0.8841666579,29.61587715,
0.8858333826,29.31146622,
0.8874999881,29.01995659,
0.8891667128,29.75536919,
0.8908333182,28.86935806,
0.8924999833,29.05224609,
0.894166708,28.72522736,
0.8958333135,28.8409996,
0.8975000381,28.70328522,
0.8991667032,29.71233368,
0.9008333087,28.89434433,
0.9025000334,29.55908203,
0.9041666389,29.26337051,
0.9058333635,29.25346184,
0.9075000286,29.44342613,
0.9091666341,28.76309586,
0.9108333588,29.42536736,
0.9125000238,29.41299629,
0.9141666889,29.2576046,
0.915833354,28.88899422,
0.9174999595,28.90021133,
0.9191666842,29.22607231,
0.9208333492,29.34691429,
0.9225000143,28.9060421,
0.9241666794,29.601408,
0.9258333445,28.87014961,
0.9275000095,29.2906208,
0.9291666746,29.49085617,
0.9308333993,29.29462624,
0.9325000048,28.72903633,
0.9341666698,28.86889458,
0.9358333349,29.19826317,
0.9375,29.47462845,
0.9391667247,29.53221893,
0.9408333302,28.94225311,
0.9424999952,28.85336876,
0.9441667199,28.8846283,
0.9458333254,28.81402016,
0.9475000501,29.47409248,
0.9491666555,29.78906059,
0.9508333206,28.88951302,
0.9525000453,29.36958313,
0.9541666508,29.43079376,
0.9558333755,29.22952652,
0.9575000405,29.66226959,
0.959166646,28.8982029,
0.9608333707,29.02105141,
0.9624999762,29.21340179,
0.9641667008,29.42669296,
0.9658333659,29.17896843,
0.9674999714,29.30213737,
0.9691666961,29.30054474,
0.9708333611,29.06097221,
0.9725000262,29.33857727,
0.9741666913,29.55998039,
0.9758332968,29.04294968,
0.9775000215,29.41733932,
0.9791666865,29.06882095,
0.9808333516,29.35840225,
0.9825000167,28.93787956,
0.9841666818,29.41590691,
0.9858333468,28.94591713,
0.9875000119,28.90745926,
0.989166677,29.21927261,
0.9908333421,29.2063694,
0.9925000072,29.20288467,
0.9941666722,29.17923546,
0.9958333373,28.59095955,
0.997500062,29.05436325,
0.9991666675,29.42802811,
1.000833273,29.82913208,
1.002500057,29.32224655,
1.004166722,28.91330719,
1.005833387,29.76883698,
1.007500052,28.65698242,
1.009166598,29.01210594,
1.010833383,29.1448288,
1.012500048,29.06658936,
1.014166713,29.6386795,
1.015833378,28.93407822,
1.017500043,29.16938019,
1.019166708,29.45694542,
1.020833373,29.35832024,
1.022500038,28.9625721,
1.024166703,29.21581078,
1.025833368,29.30962563,
1.027500033,29.1873703,
1.029166698,29.10070419,
1.030833364,29.29790878,
1.032500029,29.07915115,
1.034166694,29.62717056,
1.035833359,28.5598526,
1.037500024,29.02778625,
1.039166689,31.69701958,
1.040833354,32.94041824,
1.042500019,41.4358902,
1.044166684,48.38259506,
1.045833349,52.11375427,
1.047500014,58.26132965,
1.049166679,59.32880402,
1.050833344,67.47055054,
1.05250001,67.43273163,
1.054166675,75.90391541,
1.05583334,78.81503296,
1.057500005,83.23545837,
1.05916667,86.75656891,
1.060833335,91.68280029,
1.0625,94.40035248,
1.064166665,98.82415009,
1.06583333,103.4536285,
1.067499995,106.8443756,
1.06916666,109.0193939,
1.070833325,113.14048,
1.07249999,116.8170776,
1.074166775,120.4963608,
1.07583344,121.7707291,
1.077499986,125.4775543,
1.079166651,128.1370697,
1.080833316,132.0060883,
1.0825001,133.856781,
1.084166765,136.7050781,
1.085833311,139.3279419,
1.087499976,142.2264099,
1.089166641,144.9014435,
1.090833426,147.1030273,
1.092500091,148.0674286,
1.094166636,149.7789764,
1.095833302,153.6463623,
1.097499967,155.4894562,
1.099166751,157.5698242,
1.100833416,159.5163269,
1.102500081,162.1058807,
1.104166627,162.9060669,
1.105833292,163.9900513,
1.107500076,167.5906982,
1.109166741,169.1115417,
1.110833406,170.2631683,
1.112499952,173.1314697,
1.114166617,173.5146484,
1.115833402,175.9334106,
1.117500067,177.8764648,
1.119166732,179.44664,
1.120833278,180.7178192,
1.122499943,182.7398071,
1.124166727,184.2726746,
1.125833392,184.3152466,
1.127500057,186.3925171,
1.129166722,189.2856445,
1.130833268,189.2001038,
1.132500052,190.9105988,
1.134166718,192.1710205,
1.135833383,193.7028351,
1.137500048,194.4284821,
1.139166594,194.6062164,
1.140833378,197.3264618,
1.142500043,199.182724,
1.144166708,199.4602051,
1.145833373,201.0312347,
1.147499919,202.131134,
1.149166703,202.6069641,
1.150833368,203.9403381,
1.152500033,205.9133301,
1.154166698,207.1153717,
1.155833364,208.2852631,
1.157500029,209.6315002,
1.159166694,209.663147,
1.160833359,210.2478638,
1.162500024,211.5878143,
1.164166689,212.2732391,
1.165833354,215.1077881,
1.167500019,214.1003265,
1.169166684,216.0125275,
1.170833349,216.2944031,
1.172500014,217.2709961,
1.174166799,218.6161041,
1.175833344,218.3718872,
1.17750001,220.1417999,
1.179166675,219.7358398,
1.18083334,221.3139954,
1.182500124,222.0396423,
1.18416667,222.1985931,
1.185833335,224.6904602,
1.1875,226.1891022,
1.189166665,225.2255554,
1.190833449,225.5289764,
1.192499995,226.848175,
1.19416666,228.5221558,
1.195833325,228.4172211,
1.19749999,228.7110443,
1.199166775,229.4923706,
1.20083344,231.2672272,
1.202499986,232.2619171,
1.204166651,231.4300385,
1.205833316,232.6237793,
1.2075001,234.1343231,
1.209166765,233.7048492,
1.210833311,234.4822693,
1.212499976,235.5131531,
1.214166641,237.9390106,
1.215833426,237.1054535,
1.217500091,236.4745026,
1.219166636,237.7214203,
1.220833302,237.9168091,
1.222499967,239.1926422,
1.224166751,240.4871979,
1.225833416,240.5440216,
1.227500081,240.8997345,
1.229166627,242.1362152,
1.230833292,241.7484741,
1.232500076,242.4153595,
1.234166741,242.8727112,
1.235833406,241.9620361,
1.237499952,244.2924957,
1.239166617,245.164566,
1.240833402,246.2331696,
1.242500067,244.8100891,
1.244166732,246.1756439,
1.245833278,247.0533295,
1.247499943,248.8851471,
1.249166727,248.8425598,
1.250833392,248.3557587,
1.252500057,249.0123138,
1.254166722,248.6986237,
1.255833268,248.809021,
1.257500052,250.7039642,
1.259166718,251.2012482,
1.260833383,250.3654327,
1.262500048,252.4425354,
1.264166594,253.9605255,
1.265833378,253.7157593,
1.267500043,253.9815674,
1.269166708,253.1483459,
1.270833373,255.1328888,
1.272499919,254.5700684,
1.274166703,256.2112732,
1.275833368,255.4984741,
1.277500033,256.9225159,
1.279166698,255.8522797,
1.280833364,257.0826416,
1.282500029,257.9738159,
1.284166694,258.3122864,
1.285833359,257.5726929,
1.287500024,258.6038818,
1.289166689,259.5281677,
1.290833354,258.9764709,
1.292500019,261.8747559,
1.294166684,261.0662231,
1.295833349,260.4863281,
1.297500014,260.5740356,
1.299166799,262.8458862,
1.300833344,261.0916748,
1.30250001,261.653595,
1.304166675,261.6796265,
1.30583334,263.4381104,
1.307500124,262.3223572,
1.30916667,264.24823,
1.310833335,262.6364441,
1.3125,262.9602661,
1.314166665,262.8254395,
1.315833449,265.2811584,
1.317499995,264.6650391,
1.31916666,264.4345093,
1.320833325,266.3160095,
1.32249999,265.6627808,
1.324166775,267.0574951,
1.32583344,267.0354309,
1.327499986,267.165802,
1.329166651,267.0220642,
1.330833316,267.6688538,
1.3325001,269.3469543,
1.334166765,267.9373779,
1.335833311,267.4627075,
1.337499976,268.4678955,
1.339166641,267.8558655,
1.340833426,269.7420044,
1.342500091,268.9282837,
1.344166636,270.2015686,
1.345833302,270.2336731,
1.347499967,270.3657227,
1.349166751,270.147583,
1.350833416,271.5791626,
1.352500081,272.8152771,
1.354166627,271.269928,
1.355833292,271.5974121,
1.357500076,272.0944824,
1.359166741,272.130127,
1.360833406,273.5704956,
1.362499952,273.4692993,
1.364166617,274.0128784,
1.365833402,273.1141968,
1.367500067,274.5894775,
1.369166732,273.830658,
1.370833278,273.9373474,
1.372499943,274.3539429,
1.374166727,273.6622009,
1.375833392,275.6180115,
1.377500057,274.9451294,
1.379166722,276.6312256,
1.380833268,275.8839417,
1.382500052,276.8292542,
1.384166718,276.6274719,
1.385833383,276.6768494,
1.387500048,278.0149231,
1.389166594,277.5567322,
1.390833378,276.8579102,
1.392500043,277.8703918,
1.394166708,279.8001099,
1.395833373,277.5962219,
1.397499919,278.9808655,
1.399166703,278.5308228,
1.400833368,278.1183167,
1.402500033,279.1488647,
1.404166698,279.9528198,
1.405833364,279.7328491,
1.407500029,280.5795288,
1.409166694,278.3275146,
1.410833359,279.8126526,
1.412500024,281.1737366,
1.414166689,280.2089233,
1.415833354,280.3531799,
1.417500019,280.6569824,
1.419166684,279.5932007,
1.420833349,280.9030151,
1.422500014,281.2455139,
1.424166799,280.0909119,
1.425833344,281.8610229,
1.42750001,281.9259949,
1.429166675,282.32547,
1.43083334,283.1757813,
1.432500124,281.092804,
1.43416667,283.1502991,
1.435833335,282.5955505,
1.4375,282.9923401,
1.439166665,284.6587524,
1.440833449,283.7297363,
1.442499995,283.8548279,
1.44416666,283.4752197,
1.445833325,283.0522766,
1.44749999,284.0677795,
1.449166775,282.9672241,
1.45083344,284.1568909,
1.452499986,285.7142944,
1.454166651,284.4610596,
1.455833316,284.9284058,
1.4575001,285.5610046,
1.459166765,284.8630981,
1.460833311,284.5422363,
1.462499976,285.2144165,
1.464166641,285.2723694,
1.465833426,286.630127,
1.467500091,285.5762634,
1.469166636,287.4838867,
1.470833302,288.6902466,
1.472499967,286.4393311,
1.474166751,285.7324524,
1.475833416,286.6252747,
1.477500081,286.8735046,
1.479166627,287.0182495,
1.480833292,286.8316345,
1.482500076,287.6276855,
1.484166741,287.8361816,
1.485833406,287.7081909,
1.487499952,287.2376099,
1.489166617,287.9576416,
1.490833402,287.8717957,
1.492500067,287.9368896,
1.494166732,290.8791809,
1.495833278,289.5866394,
1.497499943,288.5803223,
1.499166727,289.9162292,
1.500833392,289.4598999,
1.502500057,290.3952637,
1.504166722,289.6401367,
1.505833268,288.9046021,
1.507500052,290.7242737,
1.509166718,289.9969482,
1.510833383,291.6818237,
1.512500048,290.3479614,
1.514166594,290.0104065,
1.515833378,290.510376,
1.517500043,290.5126343,
1.519166708,291.1730347,
1.520833373,291.1052551,
1.522499919,291.5483704,
1.524166703,290.8518677,
1.525833368,291.4913635,
1.527500033,290.915863,
1.529166698,292.2184753,
1.530833364,289.5523987,
1.532500029,291.9197998,
1.534166694,292.8421631,
1.535833359,292.3235474,
1.537500024,291.8847351,
1.539166689,292.7692261,
1.540833354,293.0491333,
1.542500019,293.1398926,
1.544166684,292.1933594,
1.545833349,292.4382935,
1.547500014,291.6832886,
1.549166799,292.7337036,
1.550833344,292.6514893,
1.55250001,293.0787659,
1.554166675,293.0576782,
1.55583334,292.5037231,
1.557500124,292.2563171,
1.55916667,294.0571289,
1.560833335,292.9259338,
1.5625,294.9075317,
1.564166665,294.4722595,
1.565833449,294.0674133,
1.567499995,293.9009399,
1.56916666,295.2977295,
1.570833325,293.2377625,
1.57249999,294.9678345,
1.574166775,295.0093994,
1.57583344,295.7642822,
1.577499986,295.4811096,
1.579166651,294.0589294,
1.580833316,295.6888123,
1.5825001,295.1459045,
1.584166765,295.000946,
1.585833311,296.4535522,
1.587499976,296.3971863,
1.589166641,296.8961182,
1.590833426,294.8135986,
1.592500091,296.7202454,
1.594166636,295.1531067,
1.595833302,297.1252136,
1.597499967,296.5276794,
1.599166751,295.8821106,
1.600833416,297.2736206,
1.602500081,297.1627197,
1.604166627,296.5791931,
1.605833292,296.9583435,
1.607500076,295.2889709,
1.609166741,297.1396484,
1.610833406,295.451355,
1.612499952,297.0415344,
1.614166617,298.901062,
1.615833402,297.8856201,
1.617500067,296.6865845,
1.619166732,298.7029724,
1.620833278,299.4005127,
1.622499943,296.5089722,
1.624166727,298.8712463,
1.625833392,298.8178101,
1.627500057,296.5799866,
1.629166722,296.5565491,
1.630833268,298.0588989,
1.632500052,297.9110413,
1.634166718,300.7394714,
1.635833383,296.4791565,
1.637500048,298.2606201,
1.639166594,299.5569458,
1.640833378,297.0901489,
1.642500043,299.5710754,
1.644166708,299.9513855,
1.645833373,299.1422119,
1.647499919,298.5976257,
1.649166703,300.4656677,
1.650833368,299.4365234,
1.652500033,299.6934204,
1.654166698,298.5611877,
1.655833364,299.92453,
1.657500029,299.6334229,
1.659166694,298.6930847,
1.660833359,299.912262,
1.662500024,299.5645752,
1.664166689,299.8312683,
1.665833354,300.918457,
1.667500019,300.6842346,
1.669166684,300.4651489,
1.670833349,298.2163086,
1.672500014,299.3200073,
1.674166799,303.1920166,
1.675833344,299.8458252,
1.67750001,299.5169067,
1.679166675,300.7565002,
1.68083334,300.3959351,
1.682500124,300.8855286,
1.68416667,301.0757751,
1.685833335,303.057312,
1.6875,302.281189,
1.689166665,299.507019,
1.690833449,300.4055176,
1.692499995,301.4822693,
1.69416666,302.5050049,
1.695833325,303.2477112,
1.69749999,301.4833374,
1.699166775,302.0527649,
1.70083344,302.0866699,
1.702499986,301.1362,
1.704166651,302.565094,
1.705833316,303.2431335,
1.7075001,302.8250122,
1.709166765,302.7750244,
1.710833311,303.1907349,
1.712499976,303.2326355,
1.714166641,302.1798401,
1.715833426,301.1769104,
1.717500091,303.7153625,
1.719166636,301.3900757,
1.720833302,303.0157776,
1.722499967,303.4127197,
1.724166751,303.4726868,
1.725833416,303.9204102,
1.727500081,301.1383667,
1.729166627,303.3335266,
1.730833292,303.3547058,
1.732500076,302.5489197,
1.734166741,302.0031433,
1.735833406,302.1625366,
1.737499952,303.3046875,
1.739166617,303.8642578,
1.740833402,303.918335,
1.742500067,301.5029297,
1.744166732,303.2574768,
1.745833278,303.3045654,
1.747499943,304.1457214,
1.749166727,303.7115784,
1.750833392,306.0778503,
1.752500057,303.5692749,
1.754166722,304.6209717,
1.755833268,304.0297546,
1.757500052,305.3127136,
1.759166718,301.5515747,
1.760833383,304.9656677,
1.762500048,303.9831848,
1.764166594,305.1629333,
1.765833378,304.546814,
1.767500043,305.1643982,
1.769166708,304.399292,
1.770833373,304.7858887,
1.772499919,304.4543762,
1.774166703,307.023468,
1.775833368,305.316925,
1.777500033,304.5368042,
1.779166698,304.0720215,
1.780833364,306.2657776,
1.782500029,305.9867859,
1.784166694,305.8461609,
1.785833359,306.3672791,
1.787500024,305.0671692,
1.789166689,305.6015625,
1.790833354,305.4090576,
1.792500019,306.6137695,
1.794166684,304.022644,
1.795833349,304.7814941,
1.797500014,305.7330933,
1.799166799,307.473175,
1.800833344,307.7084961,
1.80250001,305.5316467,
1.804166675,307.639679,
1.80583334,307.4306335,
1.807500124,305.9940796,
1.80916667,306.8990479,
1.810833335,306.6170349,
1.8125,304.6758728,
1.814166665,307.5395508,
1.815833449,308.140564,
1.817499995,305.9940186,
1.81916666,309.070282,
1.820833325,306.3565063,
1.82249999,307.6539307,
1.824166775,305.9139099,
1.82583344,305.87323,
1.827499986,307.0265503,
1.829166651,305.1486206,
1.830833316,309.3229065,
1.8325001,308.5330811,
1.834166765,307.7347412,
1.835833311,307.537323,
1.837499976,306.9216614,
1.839166641,307.780426,
1.840833426,307.6659241,
1.842500091,309.6403198,
1.844166636,307.9244385,
1.845833302,306.353363,
1.847499967,307.7364197,
1.849166751,305.9809875,
1.850833416,307.2912598,
1.852500081,309.6872559,
1.854166627,307.2991943,
1.855833292,306.8777771,
1.857500076,308.675354,
1.859166741,306.9240723,
1.860833406,309.1531677,
1.862499952,308.1584778,
1.864166617,308.1636658,
1.865833402,309.8872375,
1.867500067,306.4844971,
1.869166732,307.1308594,
1.870833278,309.0523987,
1.872499943,308.20401,
1.874166727,310.3061218,
1.875833392,309.0170288,
1.877500057,308.9346619,
1.879166722,308.0204163,
1.880833268,309.1095581,
1.882500052,308.1616821,
1.884166718,309.1690674,
1.885833383,310.324585,
1.887500048,308.4388123,
1.889166594,309.7076721,
1.890833378,308.8590698,
1.892500043,309.1618652,
1.894166708,310.3898926,
1.895833373,309.9480896,
1.897499919,308.5029602,
1.899166703,309.9822693,
1.900833368,309.8623657,
1.902500033,310.0106506,
1.904166698,309.2544861,
1.905833364,309.9897766,
1.907500029,309.5231018,
1.909166694,309.3152161,
1.910833359,309.5038452,
1.912500024,309.7897949,
1.914166689,308.2319641,
1.915833354,310.8717957,
1.917500019,308.2145386,
1.919166684,310.8059998,
1.920833349,309.1026611,
1.922500014,310.8721924,
1.924166799,311.0773621,
1.925833344,310.0977478,
1.92750001,308.0817566,
1.929166675,309.7338562,
1.93083334,309.3364868,
1.932500124,309.5927124,
1.93416667,308.4604797,
1.935833335,312.0880432,
1.9375,311.0352783,
1.939166665,308.6643677,
1.940833449,310.9893188,
1.942499995,310.2615051,
1.94416666,310.6867981,
1.945833325,310.2329102,
1.94749999,310.6027832,
1.949166775,310.6235352,
1.95083344,310.4506226,
1.952499986,311.0615845,
1.954166651,311.7437134,
1.955833316,307.9294128,
1.9575001,313.2419128,
1.959166765,309.6321411,
1.960833311,309.9546509,
1.962499976,311.1420898,
1.964166641,309.8903198,
1.965833426,310.6541443,
1.967500091,310.9195557,
1.969166636,309.6499634,
1.970833302,314.1219482,
1.972499967,310.5799866,
1.974166751,310.6616516,
1.975833416,311.6588135,
1.977500081,311.2014771,
1.979166627,310.2301941,
1.980833292,310.9352417,
1.982500076,309.9277039,
1.984166741,311.0222778,
1.985833406,310.8770752,
1.987499952,310.7322388,
1.989166617,312.0267639,
1.990833402,312.04245,
1.992500067,311.9963074,
1.994166732,313.2425537,
1.995833278,313.0144958,
1.997499943,310.3731995,
1.999166727,310.3401794,
2.000833273,311.8146973,
2.002500057,311.7475891,
2.004166603,310.8957825,
2.005833387,310.2767944,
2.007500172,312.5681458,
2.009166718,311.8711853,
2.010833263,311.8545532,
2.012500048,310.4443665,
2.014166594,312.5,
2.015833378,313.5690613,
2.017500162,310.9022217,
2.019166708,312.1736145,
2.020833254,312.7867737,
2.022500038,312.3224487,
2.024166822,312.7519226,
2.025833368,311.1667786,
2.027499914,311.4801941,
2.029166698,312.0525208,
2.030833244,310.6624146,
2.032500029,314.8766785,
2.034166813,312.0498352,
2.035833359,312.7674255,
2.037499905,312.7377014,
2.039166689,310.7717896,
2.040833473,313.9934692,
2.042500019,312.0116577,
2.044166803,314.6933594,
2.045833349,312.2303772,
2.047499895,313.7463074,
2.049166679,313.7671509,
2.050833464,312.140686,
2.05250001,311.2721252,
2.054166555,312.6684265,
2.05583334,313.0328369,
2.057500124,314.8813171,
2.05916667,313.3045959,
2.060833454,312.7693481,
2.0625,314.3150635,
2.064166546,314.0597839,
2.06583333,312.9128113,
2.067500114,314.218689,
2.06916666,312.867157,
2.070833445,312.8226624,
2.07249999,312.7340698,
2.074166775,315.3674011,
2.075833321,315.2787476,
2.077500105,312.8135681,
2.079166651,314.0569763,
2.080833197,314.2942505,
2.082499981,312.8043213,
2.084166765,313.4616394,
2.085833311,314.2000122,
2.087500095,313.7772827,
2.089166641,311.0900879,
2.090833426,313.6315002,
2.092499971,314.8941956,
2.094166756,314.1629333,
2.095833302,312.7941589,
2.097500086,313.8413696,
2.099166632,313.2199402,
2.100833416,313.7315674,
2.102499962,315.2565613,
2.104166746,314.1542053,
2.105833292,312.8455505,
2.107500076,314.5913696,
2.109166622,313.236084,
2.110833406,314.3225403,
2.112499952,315.4070435,
2.114166737,314.5355835,
2.115833521,313.6081848,
2.117500067,314.0194397,
2.119166613,313.6937866,
2.120833397,315.8392639,
2.122499943,313.0513916,
2.124166727,314.6969299,
2.125833273,315.3622131,
2.127500057,315.3841858,
2.129166603,314.3251038,
2.130833387,315.4586792,
2.132500172,314.3495483,
2.134166718,314.7462769,
2.135833502,313.3501587,
2.137500048,314.6016541,
2.139166832,315.5754089,
2.140833378,314.2831726,
2.142500162,316.0552673,
2.144166708,313.9931335,
2.145833254,312.5715942,
2.147500038,315.6879272,
2.149166584,315.4161682,
2.150833368,315.7698669,
2.152500153,313.0983887,
2.154166698,316.1015625,
2.155833483,314.4769592,
2.157500029,317.4833679,
2.159166813,314.2536011,
2.160833597,315.353302,
2.162499905,313.8149414,
2.164166689,315.067749,
2.165833235,315.7202454,
2.167500019,314.8532715,
2.169166803,317.2989502,
2.170833349,315.8566284,
2.172500134,313.4351501,
2.174166679,314.9644165,
2.175833464,315.2806091,
2.177500248,314.4902344,
2.179166555,314.9172668,
2.18083334,314.0289612,
2.182499886,315.830719,
2.18416667,317.5831299,
2.185833454,314.3978577,
2.1875,314.6553345,
2.189166784,314.8038025,
2.19083333,314.3214417,
2.192500114,314.6437378,
2.194166899,314.5860596,
2.195833445,314.8919983,
2.19749999,314.6462402,
2.199166536,315.4539185,
2.200833321,314.5689392,
2.202500105,314.8529358,
2.204166651,315.7901001,
2.205833435,315.7053223,
2.207499981,316.1646118,
2.209166765,315.0087891,
2.210833549,314.9884338,
2.212500095,314.5786133,
2.21416688,314.6156616,
2.215833187,315.5566101,
2.217499971,314.6624756,
2.219166756,315.602417,
2.220833302,315.8263245,
2.222500086,315.7351379,
2.224166632,316.3147583,
2.225833416,315.1898499,
2.2275002,315.4275818,
2.229166746,316.4034729,
2.23083353,315.9093323,
2.232499838,315.4404907,
2.234166622,318.0169678,
2.235833406,316.522644,
2.237499952,314.4360657,
2.239166737,316.7842712,
2.240833282,314.5678101,
2.242500067,314.7757874,
2.244166851,316.1221924,
2.245833397,315.2773438,
2.247500181,317.0566406,
2.249166727,315.6240234,
2.250833273,316.6499634,
2.252500057,316.4128113,
2.254166603,317.7811584,
2.255833387,317.372467,
2.257499933,316.7582397,
2.259166718,316.0380249,
2.260833502,317.2703857,
2.262500048,317.2626953,
2.264166832,316.2241821,
2.265833378,315.0577698,
2.267500162,315.7395325,
2.269166708,317.2154236,
2.270833254,316.5301208,
2.272500038,316.428894,
2.274166584,318.1140747,
2.275833368,316.3957214,
2.277500153,315.7598877,
2.279166698,315.8267517,
2.280833483,315.0611572,
2.282500029,316.1246643,
2.284166813,317.2714539,
2.285833597,315.8509216,
2.287499905,316.757843,
2.289166689,315.8109436,
2.290833235,317.2938538,
2.292500019,313.4075317,
2.294166803,316.4249573,
2.295833349,316.8812561,
2.297500134,317.0202942,
2.299166679,319.4658813,
2.300833464,316.1591187,
2.302500248,317.5760803,
2.304166555,317.0313721,
2.30583334,318.3171692,
2.307499886,317.2971191,
2.30916667,315.5189514,
2.310833454,315.6770935,
2.3125,317.1326904,
2.314166784,318.1303406,
2.31583333,316.1426086,
2.317500114,318.088623,
2.319166899,317.1008911,
2.320833445,319.121582,
2.32249999,318.2020569,
2.324166536,319.5226746,
2.325833321,317.7802124,
2.327500105,315.9910889,
2.329166651,319.1379395,
2.330833435,317.4564819,
2.332499981,318.2506104,
2.334166765,317.331543,
2.335833549,316.8584595,
2.337500095,321.4296875,
2.33916688,316.5708923,
2.340833187,316.1274719,
2.342499971,317.9189148,
2.344166756,317.6287842,
2.345833302,317.5749817,
2.347500086,318.5180664,
2.349166632,317.524292,
2.350833416,317.9802246,
2.3525002,316.7955933,
2.354166746,317.0392761,
2.35583353,317.49823,
2.357499838,318.4662476,
2.359166622,319.0258789,
2.360833406,316.7662964,
2.362499952,319.6903992,
2.364166737,318.3817749,
2.365833282,317.397583,
2.367500067,317.2804871,
2.369166851,318.2106018,
2.370833397,317.9305115,
2.372500181,315.6878052,
2.374166727,317.0700989,
2.375833273,317.4720764,
2.377500057,316.4216309,
2.379166603,318.4845886,
2.380833387,317.7137756,
2.382499933,316.8420715,
2.384166718,317.9046936,
2.385833502,318.4496765,
2.387500048,316.6188354,
2.389166832,318.0899353,
2.390833378,317.9812927,
2.392500162,318.3735962,
2.394166708,319.8898315,
2.395833254,320.7295837,
2.397500038,319.6082153,
2.399166584,317.8932495,
2.400833368,320.1807861,
2.402500153,317.9553528,
2.404166698,317.7606201,
2.405833483,316.9456482,
2.407500029,318.5762939,
2.409166813,319.3847351,
2.410833597,318.0032043,
2.412499905,319.8222656,
2.414166689,319.2986755,
2.415833235,318.4395142,
2.417500019,317.4192505,
2.419166803,319.3882751,
2.420833349,317.9127808,
2.422500134,319.01651,
2.424166679,318.6262207,
2.425833464,320.6734009,
2.427500248,316.6525879,
2.429166555,317.9429016,
2.43083334,318.919281,
2.432499886,319.2141418,
2.43416667,317.7792053,
2.435833454,318.1647949,
2.4375,319.1992188,
2.439166784,319.930542,
2.44083333,318.48349,
2.442500114,320.811676,
2.444166899,320.9163513,
2.445833445,318.1767273,
2.44749999,318.4872742,
2.449166536,316.5643616,
2.450833321,319.4846497,
2.452500105,318.3676758,
2.454166651,318.3779602,
2.455833435,317.0763855,
2.457499981,319.1533203,
2.459166765,318.8777466,
2.460833549,317.2165527,
2.462500095,319.3118591,
2.46416688,320.4054565,
2.465833187,318.4286804,
2.467499971,318.7724915,
2.469166756,319.1273499,
2.470833302,319.5967407,
2.472500086,319.7340698,
2.474166632,318.7734375,
2.475833416,318.9169006,
2.4775002,320.6152649,
2.479166746,319.0466919,
2.48083353,319.0958557,
2.482499838,320.0462036,
2.484166622,319.9121704,
2.485833406,318.3928528,
2.487499952,319.3041077,
2.489166737,319.2219849,
2.490833282,317.6506958,
2.492500067,319.5910645,
2.494166851,317.6425171,
2.495833397,320.053894,
2.497500181,318.1509094,
2.499166727,318.4762878,
2.500833273,319.8184204,
2.502500057,318.6375122,
2.504166603,317.9042053,
2.505833387,319.9296265,
2.507499933,319.2253418,
2.509166718,318.6127625,
2.510833502,319.8230896,
2.512500048,318.8018188,
2.514166832,319.7162476,
2.515833378,322.221283,
2.517500162,320.5668335,
2.519166708,320.3250122,
2.520833254,320.0036621,
2.522500038,319.6083984,
2.524166584,319.0849609,
2.525833368,320.6527405,
2.527500153,321.1608582,
2.529166698,321.4344177,
2.530833483,320.196991,
2.532500029,320.1618042,
2.534166813,319.6553345,
2.535833597,319.1507568,
2.537499905,319.753479,
2.539166689,319.1545715,
2.540833235,318.1842651,
2.542500019,319.6251831,
2.544166803,320.7581787,
2.545833349,319.6753845,
2.547500134,320.1314392,
2.549166679,318.7997742,
2.550833464,320.4032898,
2.552500248,320.2341003,
2.554166555,320.1659241,
2.55583334,318.5331726,
2.557499886,320.752655,
2.55916667,320.8609619,
2.560833454,320.3347778,
2.5625,318.9606018,
2.564166784,320.3363953,
2.56583333,317.4857788,
2.567500114,318.6480713,
2.569166899,319.5925598,
2.570833445,318.203186,
2.57249999,320.8977661,
2.574166536,319.6493835,
2.575833321,319.2259521,
2.577500105,319.5755615,
2.579166651,319.3048096,
2.580833435,319.1282654,
2.582499981,320.1267395,
2.584166765,322.5005798,
2.585833549,323.1222534,
2.587500095,321.3100586,
2.58916688,320.1394043,
2.590833187,321.09729,
2.592499971,319.6302185,
2.594166756,320.5577698,
2.595833302,319.8865051,
2.597500086,320.7029114,
2.599166632,319.9687805,
2.600833416,319.7692871,
2.6025002,321.3680115,
2.604166746,320.2010803,
2.60583353,319.6880493,
2.607499838,318.9125366,
2.609166622,321.5421753,
2.610833406,321.2739868,
2.612499952,320.1913757,
2.614166737,321.3710327,
2.615833282,321.5093994,
2.617500067,319.6099548,
2.619166851,321.2584839,
2.620833397,321.047699,
2.622500181,319.9052429,
2.624166727,320.868042,
2.625833273,321.6390991,
2.627500057,319.7654724,
2.629166603,318.4793396,
2.630833387,321.0815735,
2.632499933,320.0289917,
2.634166718,318.9480896,
2.635833502,320.7085571,
2.637500048,319.7024536,
2.639166832,320.959198,
2.640833378,319.8231812,
2.642500162,319.8740234,
2.644166708,319.8356323,
2.645833254,320.2529907,
2.647500038,321.0435791,
2.649166584,319.9625244,
2.650833368,320.6575012,
2.652500153,320.0636292,
2.654166698,322.2979126,
2.655833483,320.0057068,
2.657500029,320.2259216,
2.659166813,319.6868896,
2.660833597,318.7044983,
2.662499905,320.1593628,
2.664166689,319.5752258,
2.665833235,321.2149963,
2.667500019,321.8173523,
2.669166803,321.5324707,
2.670833349,322.27948,
2.672500134,321.2267151,
2.674166679,321.3423767,
2.675833464,322.2608948,
2.677500248,321.1228333,
2.679166555,319.5603333,
2.68083334,319.6577454,
2.682499886,320.2424011,
2.68416667,321.0079346,
2.685833454,320.712616,
2.6875,321.6551819,
2.689166784,320.8620911,
2.69083333,319.9162598,
2.692500114,321.2502136,
2.694166899,320.9027405,
2.695833445,321.0092163,
2.69749999,320.3451538,
2.699166536,320.858429,
2.700833321,323.2642822,
2.702500105,321.5591736,
2.704166651,319.1906128,
2.705833435,321.6946106,
2.707499981,320.8988647,
2.709166765,322.5585938,
2.710833549,321.7247925,
2.712500095,321.5710449,
2.71416688,320.6506958,
2.715833187,321.4951477,
2.717499971,320.5595703,
2.719166756,321.1615906,
2.720833302,322.7249146,
2.722500086,321.9150696,
2.724166632,322.0093384,
2.725833416,319.4356689,
2.7275002,320.46875,
2.729166746,321.0367737,
2.73083353,320.8369751,
2.732499838,320.3731079,
2.734166622,320.6713867,
2.735833406,320.5138245,
2.737499952,320.0451355,
2.739166737,323.3128052,
2.740833282,321.1821899,
2.742500067,321.6818848,
2.744166851,321.3223877,
2.745833397,322.1044312,
2.747500181,320.7279663,
2.749166727,320.2765198,
2.750833273,321.9227905,
2.752500057,321.4381409,
2.754166603,321.5268555,
2.755833387,321.3427429,
2.757499933,322.426239,
2.759166718,321.5368958,
2.760833502,319.3832397,
2.762500048,320.9877319,
2.764166832,319.6605225,
2.765833378,321.8500366,
2.767500162,320.4065552,
2.769166708,322.2789001,
2.770833254,321.1386414,
2.772500038,321.3658142,
2.774166584,320.8357239,
2.775833368,320.2805481,
2.777500153,322.2803345,
2.779166698,323.6001282,
2.780833483,322.121521,
2.782500029,321.8670349,
2.784166813,321.8349915,
2.785833597,320.6391296,
2.787499905,321.3690186,
2.789166689,321.365509,
2.790833235,320.8664551,
2.792500019,323.1146545,
2.794166803,320.5236206,
2.795833349,322.070343,
2.797500134,322.4171753,
2.799166679,321.6358337,
2.800833464,320.6889343,
2.802500248,321.7390747,
2.804166555,320.8574219,
2.80583334,323.4187012,
2.807499886,322.9816589,
2.80916667,321.2423706,
2.810833454,322.0749512,
2.8125,321.3857727,
2.814166784,320.5458984,
2.81583333,322.2678833,
2.817500114,321.8352051,
2.819166899,323.0823364,
2.820833445,322.5453186,
2.82249999,321.963501,
2.824166536,322.4554138,
2.825833321,320.874115,
2.827500105,323.0645142,
2.829166651,321.4446411,
2.830833435,322.1966553,
2.832499981,322.8018188,
2.834166765,323.2024841,
2.835833549,323.4269104,
2.837500095,321.4560547,
2.83916688,322.255127,
2.840833187,322.3009338,
2.842499971,324.9895325,
2.844166756,323.5117798,
2.845833302,322.8917236,
2.847500086,322.049408,
2.849166632,321.0093689,
2.850833416,320.5042725,
2.8525002,320.1550598,
2.854166746,322.2678528,
2.85583353,322.336853,
2.857499838,320.7241211,
2.859166622,320.6922607,
2.860833406,323.4993286,
2.862499952,323.1441345,
2.864166737,321.303772,
2.865833282,324.3752441,
2.867500067,322.8988647,
2.869166851,323.153656,
2.870833397,324.463501,
2.872500181,322.6502686,
2.874166727,321.4043274,
2.875833273,322.6559753,
2.877500057,323.6513367,
2.879166603,322.168335,
2.880833387,322.3627014,
2.882499933,323.29953,
2.884166718,322.4880676,
2.885833502,323.0045471,
2.887500048,321.549469,
2.889166832,321.7979126,
2.890833378,321.3897705,
2.892500162,321.056366,
2.894166708,322.4821777,
2.895833254,322.9520264,
2.897500038,322.2782288,
2.899166584,323.4615479,
2.900833368,324.5446472,
2.902500153,321.0639038,
2.904166698,322.8783569,
2.905833483,322.0194397,
2.907500029,323.6753235,
2.909166813,320.9812622,
2.910833597,324.1712952,
2.912499905,323.9761047,
2.914166689,322.5866394,
2.915833235,322.672821,
2.917500019,321.8980408,
2.919166803,322.3561401,
2.920833349,322.9661865,
2.922500134,322.6006775,
2.924166679,322.7528687,
2.925833464,322.611145,
2.927500248,323.2016296,
2.929166555,321.855835,
2.93083334,323.0978699,
2.932499886,321.3759766,
2.93416667,321.4490662,
2.935833454,323.5344238,
2.9375,324.1726685,
2.939166784,322.2903748,
2.94083333,322.9541626,
2.942500114,321.5953674,
2.944166899,321.302002,
2.945833445,321.7800293,
2.94749999,322.2631226,
2.949166536,321.0924988,
2.950833321,323.0685425,
2.952500105,323.4478149,
2.954166651,322.6619263,
2.955833435,322.2018738,
2.957499981,322.2714233,
2.959166765,323.115448,
2.960833549,323.4732056,
2.962500095,320.7136841,
2.96416688,322.3154297,
2.965833187,323.778595,
2.967499971,320.9344788,
2.969166756,324.8468018,
2.970833302,322.0145264,
2.972500086,321.2907104,
2.974166632,323.3009033,
2.975833416,323.7797852,
2.9775002,324.4348145,
2.979166746,323.9650574,
2.98083353,322.4996643,
2.982499838,323.1562195,
2.984166622,324.2962341,
2.985833406,322.9794006,
2.987499952,323.2746887,
2.989166737,324.4302063,
2.990833282,322.4729309,
2.992500067,322.0418701,
2.994166851,322.7054749,
2.995833397,322.243927,
2.997500181,321.871582,
2.999166727,324.0129395,
3.000833273,323.0351868,
3.002500057,323.5299377,
3.004166603,324.3768005,
3.005833387,322.0295105,
3.007499933,322.5549011,
3.009166718,322.09198,
3.010833502,322.4259033,
3.012500048,323.0127258,
3.014166832,325.2565613,
3.015833378,325.1557007,
3.017500162,322.3994141,
3.019166708,321.6482849,
3.020833254,321.9776917,
3.022500038,327.0444031,
3.024166584,322.9189758,
3.025833368,323.9757385,
3.027500153,322.0628357,
3.029166698,324.0187683,
3.030833483,322.5888977,
3.032500029,321.8561707,
3.034166813,322.5186462,
3.035833597,324.9122009,
3.037499905,323.2937012,
3.039166689,322.1288147,
3.040833235,323.4070435,
3.042500019,322.8154297,
3.044166803,323.9396362,
3.045833349,323.1413574,
3.047500134,324.5152893,
3.049166679,322.315033,
3.050833464,324.7972107,
3.052500248,322.6818237,
3.054166555,323.7891541,
3.05583334,323.165741,
3.057499886,324.5496521,
3.05916667,322.8186646,
3.060833454,323.2485962,
3.0625,322.1820679,
3.064166784,323.8978882,
3.06583333,323.3127441,
3.067500114,323.3614807,
3.069166899,322.1104126,
3.070833445,322.4846802,
3.07249999,321.4371948,
3.074166536,325.1047974,
3.075833321,323.3732605,
3.077500105,323.2915649,
3.079166651,323.6733398,
3.080833435,324.8317566,
3.082499981,323.4771118,
3.084166765,322.6339417,
3.085833549,323.3981018,
3.087500095,324.7191162,
3.08916688,322.8713379,
3.090833187,322.8128052,
3.092499971,323.8193359,
3.094166756,326.6529541,
3.095833302,325.4109192,
3.097500086,324.1688232,
3.099166632,323.9330444,
3.100833416,323.9096069,
3.1025002,325.1013489,
3.104166746,323.793396,
3.10583353,325.4345703,
3.107499838,322.0825806,
3.109166622,323.4260254,
3.110833406,324.6437988,
3.112499952,322.436676,
3.114166737,324.0244446,
3.115833282,323.4944763,
3.117500067,324.084198,
3.119166851,323.9282837,
3.120833397,324.4167786,
3.122500181,323.3497925,
3.124166727,323.2137146,
3.125833273,324.4084473,
3.127500057,325.1220703,
3.129166603,321.5587463,
3.130833387,323.0705566,
3.132499933,325.9200745,
3.134166718,322.5731506,
3.135833502,324.7631226,
3.137500048,322.7991638,
3.139166832,324.2370911,
3.140833378,323.7036438,
3.142500162,322.5494385,
3.144166708,321.8814087,
3.145833254,324.8115845,
3.147500038,325.3979492,
3.149166584,323.2141113,
3.150833368,322.885498,
3.152500153,324.6052856,
3.154166698,325.1141968,
3.155833483,324.8058472,
3.157500029,324.4847107,
3.159166813,324.0931396,
3.160833597,324.8581543,
3.162499905,324.9651184,
3.164166689,325.1336975,
3.165833235,325.2845764,
3.167500019,325.1734619,
3.169166803,324.6818848,
3.170833349,326.6176453,
3.172500134,323.8744202,
3.174166679,323.4995728,
3.175833464,321.4633789,
3.177500248,324.9911499,
3.179166555,324.0153198,
3.18083334,323.1661682,
3.182499886,322.8156433,
3.18416667,324.6032715,
3.185833454,322.3736877,
3.1875,324.90802,
3.189166784,323.9463501,
3.19083333,325.0391235,
3.192500114,323.0017395,
3.194166899,324.4816589,
3.195833445,325.243927,
3.19749999,324.1148376,
3.199166536,324.9339294,
3.200833321,325.2408142,
3.202500105,324.1711426,
3.204166651,324.4482117,
3.205833435,325.7038269,
3.207499981,324.1352539,
3.209166765,324.6455383,
3.210833549,324.3083496,
3.212500095,325.0906677,
3.21416688,325.2643127,
3.215833187,324.8824768,
3.217499971,326.2547607,
3.219166756,324.7241821,
3.220833302,322.5220337,
3.222500086,322.7797546,
3.224166632,325.1453247,
3.225833416,322.6519775,
3.2275002,324.1566772,
3.229166746,323.1283875,
3.23083353,325.1251526,
3.232499838,322.7123718,
3.234166622,323.7037964,
3.235833406,324.7366943,
3.237499952,326.6462708,
3.239166737,324.1040344,
3.240833282,324.4237976,
3.242500067,324.9203796,
3.244166851,323.1488037,
3.245833397,325.0852661,
3.247500181,326.2244873,
3.249166727,324.3387451,
3.250833273,321.3461304,
3.252500057,323.0608215,
3.254166603,325.0270691,
3.255833387,323.4394226,
3.257499933,324.5315247,
3.259166718,325.0219727,
3.260833502,325.0629883,
3.262500048,326.691803,
3.264166832,322.8251343,
3.265833378,325.3726196,
3.267500162,325.1189575,
3.269166708,326.7802734,
3.270833254,325.3277283,
3.272500038,324.5038147,
3.274166584,325.7897644,
3.275833368,324.9440308,
3.277500153,326.1062012,
3.279166698,324.29953,
3.280833483,325.3117065,
3.282500029,324.2475281,
3.284166813,324.6721497,
3.285833597,325.4498596,
3.287499905,325.598877,
3.289166689,326.1322021,
3.290833235,323.9138794,
3.292500019,324.8184814,
3.294166803,323.9231262,
3.295833349,325.5557251,
3.297500134,323.1452942,
3.299166679,324.9884644,
3.300833464,327.48703,
3.302500248,325.3692017,
3.304166555,325.799408,
3.30583334,326.4856262,
3.307499886,324.3517761,
3.30916667,325.8069458,
3.310833454,323.6134033,
3.3125,324.0380249,
3.314166784,324.3041077,
3.31583333,324.3323364,
3.317500114,325.3548889,
3.319166899,323.8633423,
3.320833445,323.4983215,
3.32249999,322.1590881,
3.324166536,323.7420349,
3.325833321,323.4633179,
3.327500105,325.7578735,
3.329166651,321.8410645,
3.330833435,322.6669312,
3.332499981,325.1260071,
3.334166765,323.4519653,
3.335833549,325.028656,
3.337500095,324.6748352,
3.33916688,324.0167847,
3.340833187,325.2512817,
3.342499971,324.2957458,
3.344166756,325.9693909,
3.345833302,327.8713989,
3.347500086,325.8180847,
3.349166632,326.0864258,
3.350833416,325.3543701,
3.3525002,325.2269897,
3.354166746,324.8864136,
3.35583353,324.0869141,
3.357499838,324.7452087,
3.359166622,325.6756592,
3.360833406,325.0741272,
3.362499952,325.9319763,
3.364166737,322.7715149,
3.365833282,323.574707,
3.367500067,325.4704285,
3.369166851,325.3637085,
3.370833397,325.0999451,
3.372500181,324.0203857,
3.374166727,325.1408997,
3.375833273,325.1138,
3.377500057,324.5084839,
3.379166603,324.4141541,
3.380833387,325.0509949,
3.382499933,323.5415039,
3.384166718,324.6759338,
3.385833502,323.7279968,
3.387500048,324.7930298,
3.389166832,324.0703735,
3.390833378,324.2944031,
3.392500162,328.5544128,
3.394166708,323.2279053,
3.395833254,324.9338379,
3.397500038,326.3867798,
3.399166584,326.7506409,
3.400833368,323.2807922,
3.402500153,325.3353577,
3.404166698,326.2798462,
3.405833483,323.5334473,
3.407500029,324.1532898,
3.409166813,325.9884644,
3.410833597,323.076355,
3.412499905,326.0708923,
3.414166689,327.6269836,
3.415833235,324.5645142,
3.417500019,323.5205078,
3.419166803,325.3135376,
3.420833349,324.9956055,
3.422500134,325.2097778,
3.424166679,324.3156433,
3.425833464,324.8941345,
3.427500248,324.6216431,
3.429166555,325.8016968,
3.43083334,324.5637512,
3.432499886,325.4516602,
3.43416667,323.5419312,
3.435833454,325.3417969,
3.4375,324.5048828,
3.439166784,323.1509399,
3.44083333,325.7830811,
3.442500114,327.1609192,
3.444166899,325.1324463,
3.445833445,323.6513977,
3.44749999,325.9662781,
3.449166536,324.2755127,
3.450833321,325.4346619,
3.452500105,325.1300049,
3.454166651,325.131134,
3.455833435,324.7410278,
3.457499981,325.8300781,
3.459166765,325.8162231,
3.460833549,325.0274658,
3.462500095,325.1531982,
3.46416688,325.6135864,
3.465833187,325.7542114,
3.467499971,324.9868164,
3.469166756,325.9211731,
3.470833302,324.2947083,
3.472500086,324.2575073,
3.474166632,325.7675476,
3.475833416,324.5055237,
3.4775002,326.5223694,
3.479166746,324.853241,
3.48083353,323.9225464,
3.482499838,323.517334,
3.484166622,325.4110718,
3.485833406,323.9711609,
3.487499952,325.8023071,
3.489166737,325.5075073,
3.490833282,326.9820862,
3.492500067,327.2814026,
3.494166851,324.9188843,
3.495833397,323.8243103,
3.497500181,324.5218811,
3.499166727,324.0959473,
3.500833273,325.8525391,
3.502500057,324.7825928,
3.504166603,323.7784119,
3.505833387,326.0571289,
3.507499933,324.6441956,
3.509166718,325.4649963,
3.510833502,325.4142761,
3.512500048,325.0801392,
3.514166832,326.2035217,
3.515833378,325.7768555,
3.517500162,324.2983093,
3.519166708,324.2147827,
3.520833254,325.7381897,

