1,,
Time (min),Intensity (a.u.),
0.0008333333535,26.49495316,
0.002500000177,26.95700264,
0.004166666884,26.76558113,
0.005833333358,26.71898079,
0.007500000298,26.91683578,
0.009166667238,27.10335541,
0.01083333418,27.13513184,
0.01250000019,26.61120224,
0.01416666713,26.91360283,
0.01583333313,26.6342411,
0.01750000194,26.57762146,
0.01916666701,27.28859901,
0.02083333395,26.76249123,
0.02250000089,27.10437012,
0.02416666783,26.92798615,
0.02583333477,26.95551491,
0.02749999985,27.07112694,
0.02916666679,27.35817146,
0.03083333373,26.85835838,
0.03250000253,27.11782455,
0.03416666761,26.50250053,
0.03583333641,27.01112556,
0.03750000149,26.59335136,
0.03916667029,26.71821594,
0.04083333537,26.88241577,
0.04250000045,26.82270813,
0.04416666925,27.05382347,
0.04583333433,26.86806679,
0.04750000313,26.91786003,
0.04916666821,26.87423325,
0.05083333328,26.88769722,
0.05250000209,27.28367805,
0.05416666716,27.17051888,
0.05583333597,26.69111824,
0.05750000104,26.99026299,
0.05916666612,26.59382248,
0.06083333492,27.07311821,
0.0625,27.2059803,
0.06416667253,26.78182411,
0.0658333376,27.18875122,
0.06750000268,26.72257614,
0.06916666776,26.91573906,
0.07083333284,26.9475708,
0.07249999791,26.99190712,
0.07416667044,26.83304405,
0.07583333552,26.6222477,
0.0775000006,27.24677086,
0.07916666567,27.48195457,
0.08083333075,26.83645821,
0.08250000328,26.49149323,
0.08416666836,26.84628868,
0.08583333343,27.25848579,
0.08749999851,26.87797928,
0.08916666359,26.54200172,
0.09083333611,26.82391167,
0.09250000119,26.71595001,
0.09416666627,27.01117134,
0.09583333135,26.48431206,
0.09749999642,27.02605629,
0.09916666895,26.53560066,
0.100833334,26.5971489,
0.1024999991,27.02574348,
0.1041666642,26.79897308,
0.1058333293,26.77906036,
0.1075000018,27.23314285,
0.1091666669,27.19580269,
0.1108333319,26.50484657,
0.112499997,27.32704926,
0.1141666621,27.31361198,
0.1158333346,26.98475266,
0.1174999997,27.3316021,
0.1191666648,26.9372139,
0.1208333299,27.09697533,
0.1224999949,27.16073799,
0.1241666749,27.06913567,
0.1258333325,26.4756279,
0.1274999976,27.30503654,
0.1291666627,27.1863308,
0.1308333278,27.32492638,
0.1325000077,27.01350021,
0.1341666728,26.567873,
0.1358333379,27.32328224,
0.137500003,26.55796623,
0.1391666681,26.26860619,
0.1408333331,26.61251259,
0.1424999982,26.72098732,
0.1441666782,26.76547241,
0.1458333284,26.63108635,
0.1475000083,26.85939407,
0.1491666585,26.8049736,
0.1508333385,27.08777046,
0.1525000036,26.50103569,
0.1541666687,26.85684967,
0.1558333337,26.67615509,
0.1574999988,27.38831711,
0.1591666639,26.77703285,
0.1608333439,26.97706795,
0.162499994,26.91590881,
0.164166674,27.00863075,
0.1658333242,26.37180138,
0.1675000042,26.91522408,
0.1691666692,26.83872604,
0.1708333343,26.89216995,
0.1724999994,26.67604446,
0.1741666645,26.86547661,
0.1758333296,25.97340965,
0.1775000095,26.54348373,
0.1791666597,26.46389961,
0.1808333397,27.0260601,
0.1824999899,26.80238152,
0.1841666698,26.90143967,
0.1858333498,26.79576302,
0.1875,27.07836914,
0.18916668,26.83533669,
0.1908333302,26.76178741,
0.1925000101,27.05009079,
0.1941666752,26.92830086,
0.1958333403,26.90761185,
0.1975000054,26.96180725,
0.1991666704,26.70206642,
0.2008333355,26.42149925,
0.2025000155,27.33081818,
0.2041666657,26.45968056,
0.2058333457,27.11856461,
0.2074999958,26.78228951,
0.2091666758,26.55872726,
0.2108333409,26.7715416,
0.212500006,26.52060127,
0.214166671,27.68013954,
0.2158333361,26.55070877,
0.2175000012,26.47317505,
0.2191666812,26.54898453,
0.2208333313,26.60539818,
0.2225000113,26.94545746,
0.2241666615,26.89625168,
0.2258333415,26.72174072,
0.2275000066,26.68870354,
0.2291666716,26.81016731,
0.2308333367,26.64249802,
0.2325000018,26.88749504,
0.2341666669,27.02797699,
0.2358333468,26.83181,
0.237499997,26.92962456,
0.239166677,26.51663589,
0.2408333272,26.74416733,
0.2425000072,26.39192772,
0.2441666722,26.62342262,
0.2458333373,27.36155128,
0.2475000024,26.93058968,
0.2491666675,26.80871391,
0.2508333325,26.85442352,
0.2524999976,27.35375977,
0.2541666627,26.69103241,
0.2558333278,26.29049492,
0.2574999928,27.20310974,
0.2591666579,26.9513855,
0.2608333528,26.86457062,
0.2624999881,26.86608124,
0.264166683,27.39360809,
0.2658333182,26.83971977,
0.2675000131,26.96413803,
0.2691666484,26.30513,
0.2708333433,26.62898827,
0.2725000083,26.59082985,
0.2741666734,27.22866058,
0.2758333385,27.03186989,
0.2775000036,26.87700653,
0.2791666687,26.58076859,
0.2808333337,26.76675224,
0.2824999988,26.84902191,
0.2841666937,26.8334713,
0.285833329,26.51057243,
0.287499994,26.9801693,
0.2891666591,27.0222187,
0.290833354,26.81965256,
0.2925000191,26.80175972,
0.2941666543,26.95289421,
0.2958333194,27.00053215,
0.2975000143,26.68278694,
0.2991666794,26.93549538,
0.3008333445,26.82139397,
0.3024999797,26.76440811,
0.3041666746,26.67540741,
0.3058333397,27.01929855,
0.3075000048,27.11658478,
0.3091666996,26.18038559,
0.3108333349,26.48818779,
0.3125,26.9089222,
0.3141666651,26.32522202,
0.31583336,27.02350426,
0.317500025,27.20296478,
0.3191666603,27.08553314,
0.3208333254,27.36492157,
0.3225000203,27.52853966,
0.3241666853,27.08490753,
0.3258333504,26.65147781,
0.3274999857,27.15465546,
0.3291666806,27.06132126,
0.3308333457,26.63794136,
0.3325000107,26.57297325,
0.3341666758,26.58395004,
0.3358333409,26.58905792,
0.337500006,27.15427017,
0.339166671,27.09026146,
0.3408333361,26.82992935,
0.342500031,26.62395096,
0.3441666663,27.1713295,
0.3458333313,27.18079758,
0.3474999964,26.85034561,
0.3491666913,26.83524323,
0.3508333564,26.76615334,
0.3524999917,26.86304855,
0.3541666567,27.06583405,
0.3558333516,26.76677704,
0.3575000167,26.6452446,
0.3591666818,26.9027729,
0.360833317,26.78476715,
0.3625000119,26.80703926,
0.364166677,27.14476585,
0.3658333421,26.61379623,
0.3675000072,26.69025421,
0.3691666722,26.90864754,
0.3708333373,26.84831619,
0.3725000024,26.73018456,
0.3741666675,26.93368149,
0.3758333623,27.22221947,
0.3774999976,26.882864,
0.3791666627,26.83171272,
0.3808333278,26.39256477,
0.3825000226,26.73219681,
0.3841666877,26.63786888,
0.385833323,27.07386208,
0.3874999881,26.72608376,
0.389166683,27.13199043,
0.390833348,27.16169167,
0.3925000131,26.6376152,
0.3941666484,26.66958809,
0.3958333433,26.67689705,
0.3975000083,26.96488953,
0.3991666734,26.80348396,
0.4008333385,26.43360901,
0.4025000036,26.86792755,
0.4041666687,26.51730537,
0.4058333337,26.56748199,
0.4074999988,26.89805603,
0.4091666937,26.72517204,
0.410833329,27.01996994,
0.412499994,26.80338097,
0.4141666591,26.74758911,
0.415833354,26.83376884,
0.4175000191,27.14865685,
0.4191666543,27.17123032,
0.4208333194,26.62652397,
0.4225000143,26.85971451,
0.4241666794,26.77908516,
0.4258333445,26.90399742,
0.4274999797,27.33483887,
0.4291666746,26.95808029,
0.4308333397,27.16388702,
0.4325000048,26.74632263,
0.4341666996,26.68312073,
0.4358333349,27.10076523,
0.4375,26.59675407,
0.4391666651,26.91930199,
0.44083336,26.98359871,
0.442500025,26.74327278,
0.4441666603,26.89372826,
0.4458333254,26.58126259,
0.4475000203,26.8657074,
0.4491666853,26.79109001,
0.4508333504,26.89364815,
0.4524999857,26.31814194,
0.4541666806,26.90013123,
0.4558333457,26.8965435,
0.4575000107,26.73895454,
0.4591666758,26.69027519,
0.4608333409,26.4542675,
0.462500006,26.75641441,
0.464166671,27.06495285,
0.4658333361,27.37987137,
0.467500031,26.75133324,
0.4691666663,26.96795654,
0.4708333313,27.29712868,
0.4724999964,26.72535706,
0.4741666913,26.62835121,
0.4758333564,26.70926094,
0.4774999917,27.02931023,
0.4791666567,26.71155739,
0.4808333516,27.07614326,
0.4825000167,26.9913559,
0.4841666818,27.00966263,
0.485833317,26.97297287,
0.4875000119,27.31127357,
0.489166677,26.83291435,
0.4908333421,26.83939171,
0.4925000072,26.10549736,
0.4941666722,26.96456528,
0.4958333373,26.43883514,
0.4975000024,26.86523247,
0.4991666675,26.90912628,
0.5008333325,26.6675415,
0.5024999976,26.89521217,
0.5041666627,27.05275154,
0.5058333278,26.97909164,
0.5074999928,26.72736359,
0.5091666579,26.73719978,
0.510833323,26.92672539,
0.5124999881,27.21104813,
0.5141666532,26.69527626,
0.5158333182,26.92022896,
0.5175000429,26.86452484,
0.5191666484,26.89146805,
0.5208333135,27.31027603,
0.5224999785,26.41111565,
0.5241667032,26.22315979,
0.5258333683,26.85896301,
0.5274999738,26.78434944,
0.5291666389,26.71742249,
0.5308333635,27.05220032,
0.5325000286,26.9490757,
0.5341666341,26.69028473,
0.5358333588,26.99082184,
0.5375000238,27.35756111,
0.5391666889,26.84185219,
0.540833354,26.92847633,
0.5424999595,27.54609299,
0.5441666842,26.70973587,
0.5458333492,26.42464256,
0.5475000143,27.18718719,
0.5491666794,27.14278984,
0.5508333445,26.93560791,
0.5525000095,26.85041809,
0.5541666746,26.65712929,
0.5558333993,26.75936127,
0.5575000048,27.11148262,
0.5591666698,26.93765259,
0.5608333349,27.03470802,
0.5625,26.87109375,
0.5641667247,26.73024559,
0.5658333302,26.81458092,
0.5674999952,26.52337837,
0.5691667199,26.58489227,
0.5708333254,26.96647835,
0.5725000501,26.87490654,
0.5741666555,27.07052612,
0.5758333206,26.67801666,
0.5775000453,26.5630722,
0.5791666508,26.70794106,
0.5808333755,26.91337204,
0.5825000405,26.66864586,
0.584166646,26.88110924,
0.5858333707,26.45711899,
0.5874999762,26.41534233,
0.5891667008,27.23191071,
0.5908333659,27.26687431,
0.5924999714,27.16295433,
0.5941666961,26.70722198,
0.5958333611,26.64255905,
0.5975000262,26.82963371,
0.5991666913,26.70259666,
0.6008332968,26.71771431,
0.6025000215,26.93719673,
0.6041666865,26.83452988,
0.6058333516,26.65198517,
0.6075000167,26.72987747,
0.6091666818,27.05105972,
0.6108333468,27.0613575,
0.6125000119,26.80840683,
0.614166677,26.76558113,
0.6158333421,26.48521996,
0.6175000072,26.92334938,
0.6191666722,26.75160789,
0.6208333373,26.86786652,
0.622500062,26.71313858,
0.6241666675,26.97896385,
0.6258333325,27.01947975,
0.6274999976,26.88838387,
0.6291666627,26.9013195,
0.6308333874,26.84989548,
0.6324999928,27.01036263,
0.6341666579,26.95368385,
0.6358333826,27.04390144,
0.6374999881,27.09907341,
0.6391667128,27.19201851,
0.6408333182,26.65942001,
0.6424999833,26.65586472,
0.644166708,26.71500206,
0.6458333135,26.80130577,
0.6475000381,26.97712708,
0.6491667032,26.29889679,
0.6508333087,26.88627052,
0.6525000334,27.0604229,
0.6541666389,27.02057457,
0.6558333635,26.90561867,
0.6575000286,27.0631485,
0.6591666341,27.30205727,
0.6608333588,26.4087944,
0.6625000238,27.11099243,
0.6641666889,26.81645584,
0.665833354,26.56625175,
0.6674999595,26.57558632,
0.6691666842,27.27668762,
0.6708333492,26.48603821,
0.6725000143,26.60887146,
0.6741666794,27.08325958,
0.6758333445,26.84703255,
0.6775000095,26.90580368,
0.6791666746,26.88074875,
0.6808333993,26.71345901,
0.6825000048,27.34032822,
0.6841666698,26.57087517,
0.6858333349,26.92969322,
0.6875,26.68766212,
0.6891667247,27.10563087,
0.6908333302,27.12965393,
0.6924999952,26.96780396,
0.6941667199,26.88774681,
0.6958333254,27.08455276,
0.6975000501,26.48349571,
0.6991666555,26.96474838,
0.7008333206,26.75579262,
0.7025000453,26.93350983,
0.7041666508,27.06214905,
0.7058333755,26.7014904,
0.7075000405,26.71521568,
0.709166646,26.85478401,
0.7108333707,27.01754189,
0.7124999762,26.69702721,
0.7141667008,26.6487236,
0.7158333659,27.14719772,
0.7174999714,26.6152916,
0.7191666961,26.82238197,
0.7208333611,26.79644585,
0.7225000262,26.63324547,
0.7241666913,26.93384171,
0.7258332968,27.11762238,
0.7275000215,26.77645874,
0.7291666865,26.47842789,
0.7308333516,26.777771,
0.7325000167,26.81156349,
0.7341666818,26.59862137,
0.7358333468,27.05085564,
0.7375000119,27.30501938,
0.739166677,26.90670776,
0.7408333421,26.91632462,
0.7425000072,26.80612755,
0.7441666722,27.0522728,
0.7458333373,27.21359825,
0.747500062,26.89223099,
0.7491666675,26.84324265,
0.7508333325,27.1184845,
0.7524999976,27.08676529,
0.7541666627,26.66898727,
0.7558333874,26.85246086,
0.7574999928,26.72954178,
0.7591666579,26.94014168,
0.7608333826,26.76400566,
0.7624999881,27.27456856,
0.7641667128,26.82864952,
0.7658333182,26.87866211,
0.7674999833,26.7661705,
0.769166708,26.69854927,
0.7708333135,26.38083839,
0.7725000381,26.82320404,
0.7741667032,27.4614563,
0.7758333087,26.70672226,
0.7775000334,27.14599228,
0.7791666389,26.52032661,
0.7808333635,26.89455795,
0.7825000286,26.75778961,
0.7841666341,27.01874352,
0.7858333588,26.78486061,
0.7875000238,26.94000053,
0.7891666889,26.47948265,
0.790833354,27.19534683,
0.7924999595,26.83778572,
0.7941666842,26.85525322,
0.7958333492,26.45685959,
0.7975000143,26.63734436,
0.7991666794,26.81678963,
0.8008333445,26.86689568,
0.8025000095,26.70732117,
0.8041666746,26.59944725,
0.8058333993,26.65843773,
0.8075000048,26.87544632,
0.8091666698,26.86360359,
0.8108333349,26.61353493,
0.8125,26.64566422,
0.8141667247,26.9515686,
0.8158333302,27.09885597,
0.8174999952,26.71468163,
0.8191667199,27.11908531,
0.8208333254,27.16982841,
0.8225000501,26.58851051,
0.8241666555,27.35202599,
0.8258333206,26.64437294,
0.8275000453,26.90240097,
0.8291666508,26.96473503,
0.8308333755,27.40123558,
0.8325000405,26.87559891,
0.834166646,27.11522484,
0.8358333707,27.18105888,
0.8374999762,26.89558792,
0.8391667008,26.97233963,
0.8408333659,27.08178329,
0.8424999714,26.72171593,
0.8441666961,27.26019287,
0.8458333611,26.98719406,
0.8475000262,27.15233803,
0.8491666913,26.88997078,
0.8508332968,26.92284203,
0.8525000215,26.86148262,
0.8541666865,26.81091881,
0.8558333516,26.86483574,
0.8575000167,27.25999069,
0.8591666818,26.85027695,
0.8608333468,26.55121803,
0.8625000119,27.01502419,
0.864166677,26.89099884,
0.8658333421,26.43148232,
0.8675000072,27.09676743,
0.8691666722,26.84215736,
0.8708333373,26.60819817,
0.872500062,26.77802658,
0.8741666675,26.60285378,
0.8758333325,26.55697441,
0.8774999976,26.87545395,
0.8791666627,26.89141846,
0.8808333874,27.27695274,
0.8824999928,26.86595345,
0.8841666579,27.21047783,
0.8858333826,26.73947906,
0.8874999881,26.96418571,
0.8891667128,27.01401901,
0.8908333182,26.47583771,
0.8924999833,26.55274963,
0.894166708,27.29456711,
0.8958333135,26.64559174,
0.8975000381,26.72605705,
0.8991667032,26.81978607,
0.9008333087,27.0827961,
0.9025000334,26.9041214,
0.9041666389,26.59097672,
0.9058333635,26.7704525,
0.9075000286,26.89514923,
0.9091666341,26.859869,
0.9108333588,27.65200233,
0.9125000238,27.12125587,
0.9141666889,26.95897102,
0.915833354,26.84326363,
0.9174999595,26.87044525,
0.9191666842,26.72579193,
0.9208333492,26.76006699,
0.9225000143,26.61462784,
0.9241666794,26.70628357,
0.9258333445,26.70493126,
0.9275000095,26.80688667,
0.9291666746,26.88484383,
0.9308333993,26.55201721,
0.9325000048,26.98885727,
0.9341666698,26.75982285,
0.9358333349,27.26395798,
0.9375,26.96165657,
0.9391667247,26.79380226,
0.9408333302,26.68563652,
0.9424999952,26.87585258,
0.9441667199,26.88510895,
0.9458333254,27.26325226,
0.9475000501,26.51517487,
0.9491666555,26.91336632,
0.9508333206,26.4764328,
0.9525000453,26.4313488,
0.9541666508,26.81070709,
0.9558333755,26.72854805,
0.9575000405,26.76030922,
0.959166646,27.0544281,
0.9608333707,27.07768631,
0.9624999762,26.84739113,
0.9641667008,26.9839592,
0.9658333659,26.26556206,
0.9674999714,27.07241249,
0.9691666961,26.24854851,
0.9708333611,26.62343597,
0.9725000262,27.05006218,
0.9741666913,27.08880615,
0.9758332968,27.03261757,
0.9775000215,27.38507271,
0.9791666865,27.04335594,
0.9808333516,26.74089813,
0.9825000167,27.27154922,
0.9841666818,27.05467606,
0.9858333468,26.88264656,
0.9875000119,27.37549973,
0.989166677,27.03599167,
0.9908333421,26.69755745,
0.9925000072,26.90386963,
0.9941666722,27.06063461,
0.9958333373,26.47929764,
0.997500062,26.26264954,
0.9991666675,26.44039536,
1.000833273,26.91179085,
1.002500057,27.17194748,
1.004166722,27.19651413,
1.005833387,27.14832687,
1.007500052,26.48042297,
1.009166598,27.06963158,
1.010833383,26.81759834,
1.012500048,26.78118706,
1.014166713,26.67988205,
1.015833378,27.05314636,
1.017500043,27.37415314,
1.019166708,26.57331848,
1.020833373,26.71602058,
1.022500038,26.61421967,
1.024166703,26.78240204,
1.025833368,26.69236755,
1.027500033,26.86469078,
1.029166698,26.90723228,
1.030833364,26.59546089,
1.032500029,26.66186523,
1.034166694,26.91065788,
1.035833359,26.87592888,
1.037500024,26.57915497,
1.039166689,26.87068748,
1.040833354,26.5726223,
1.042500019,27.04003143,
1.044166684,27.02099609,
1.045833349,26.81840897,
1.047500014,26.93784714,
1.049166679,27.2113781,
1.050833344,27.34009743,
1.05250001,27.05101585,
1.054166675,26.97052574,
1.05583334,26.96319199,
1.057500005,26.79063606,
1.05916667,26.96686745,
1.060833335,27.38083076,
1.0625,26.92813873,
1.064166665,26.92658615,
1.06583333,26.62174416,
1.067499995,26.77853584,
1.06916666,27.18258667,
1.070833325,27.01519012,
1.07249999,26.04315758,
1.074166775,25.87425041,
1.07583344,27.52491188,
1.077499986,33.84741211,
1.079166651,31.51205254,
1.080833316,40.29843521,
1.0825001,42.39476776,
1.084166765,44.25691223,
1.085833311,56.43829346,
1.087499976,52.18602371,
1.089166641,61.57825089,
1.090833426,62.13328552,
1.092500091,61.48609924,
1.094166636,74.0057373,
1.095833302,77.2216568,
1.097499967,79.40437317,
1.099166751,83.9549942,
1.100833416,86.11650848,
1.102500081,88.89723969,
1.104166627,92.19866943,
1.105833292,94.96300507,
1.107500076,98.09746552,
1.109166741,101.3302765,
1.110833406,104.1529083,
1.112499952,105.8951111,
1.114166617,108.8355942,
1.115833402,111.5736465,
1.117500067,113.1816254,
1.119166732,117.0147095,
1.120833278,119.7957306,
1.122499943,120.084549,
1.124166727,122.1614532,
1.125833392,124.6702881,
1.127500057,127.046524,
1.129166722,128.6120911,
1.130833268,132.1919708,
1.132500052,133.601181,
1.134166718,134.5313263,
1.135833383,136.8697357,
1.137500048,137.3768616,
1.139166594,139.940567,
1.140833378,142.2649231,
1.142500043,142.8961334,
1.144166708,145.6014404,
1.145833373,146.1825409,
1.147499919,148.5648651,
1.149166703,150.1282043,
1.150833368,152.1523132,
1.152500033,153.057663,
1.154166698,153.8306732,
1.155833364,156.6685333,
1.157500029,158.2205963,
1.159166694,159.0722198,
1.160833359,160.1329956,
1.162500024,161.2216034,
1.164166689,162.7721252,
1.165833354,164.0892181,
1.167500019,166.7831116,
1.169166684,165.874176,
1.170833349,167.5829468,
1.172500014,169.0063629,
1.174166799,169.2884674,
1.175833344,169.4208221,
1.17750001,170.9315338,
1.179166675,173.0423431,
1.18083334,173.9611816,
1.182500124,175.3153992,
1.18416667,176.1102142,
1.185833335,178.4686432,
1.1875,177.8767853,
1.189166665,178.9918518,
1.190833449,181.2241821,
1.192499995,180.3065186,
1.19416666,182.1298981,
1.195833325,184.0618896,
1.19749999,183.973877,
1.199166775,185.0135498,
1.20083344,185.5319366,
1.202499986,185.999588,
1.204166651,187.5214081,
1.205833316,187.6773987,
1.2075001,189.2728882,
1.209166765,190.170929,
1.210833311,190.7353668,
1.212499976,191.0467682,
1.214166641,191.5486603,
1.215833426,193.9818115,
1.217500091,194.2120514,
1.219166636,195.3508606,
1.220833302,194.9243317,
1.222499967,195.4973297,
1.224166751,196.5639496,
1.225833416,197.6550598,
1.227500081,199.0325623,
1.229166627,199.8450165,
1.230833292,200.1177521,
1.232500076,200.9774933,
1.234166741,200.0688019,
1.235833406,200.6258087,
1.237499952,200.9531403,
1.239166617,202.537735,
1.240833402,204.1156158,
1.242500067,204.4911652,
1.244166732,204.8577271,
1.245833278,206.7591858,
1.247499943,206.2353516,
1.249166727,207.2047272,
1.250833392,207.3333282,
1.252500057,208.0534058,
1.254166722,205.971405,
1.255833268,208.655365,
1.257500052,209.0533142,
1.259166718,209.9310608,
1.260833383,210.9372101,
1.262500048,210.8210449,
1.264166594,211.3836517,
1.265833378,211.726944,
1.267500043,212.8069458,
1.269166708,213.9201813,
1.270833373,213.6766357,
1.272499919,214.3006439,
1.274166703,213.0721436,
1.275833368,214.7076263,
1.277500033,214.9848633,
1.279166698,216.7871094,
1.280833364,216.1391296,
1.282500029,218.3236694,
1.284166694,216.6781464,
1.285833359,217.8191986,
1.287500024,218.5827026,
1.289166689,219.5863495,
1.290833354,219.8170929,
1.292500019,219.4792786,
1.294166684,219.0686951,
1.295833349,220.438385,
1.297500014,220.476593,
1.299166799,220.4693146,
1.300833344,221.4713287,
1.30250001,221.5257416,
1.304166675,221.7536469,
1.30583334,222.8288269,
1.307500124,222.7342224,
1.30916667,223.1612854,
1.310833335,225.1677856,
1.3125,224.3439789,
1.314166665,224.3405914,
1.315833449,224.4692841,
1.317499995,225.157135,
1.31916666,226.1917572,
1.320833325,227.2520142,
1.32249999,226.5139618,
1.324166775,225.4502106,
1.32583344,227.8597565,
1.327499986,227.4181519,
1.329166651,227.7745056,
1.330833316,229.1540527,
1.3325001,229.6235809,
1.334166765,228.9356537,
1.335833311,229.2633057,
1.337499976,228.9286804,
1.339166641,230.3717651,
1.340833426,230.3070526,
1.342500091,230.5854187,
1.344166636,231.171814,
1.345833302,232.2913666,
1.347499967,232.3083496,
1.349166751,232.2038269,
1.350833416,232.2256317,
1.352500081,232.6640472,
1.354166627,232.3467407,
1.355833292,233.9120026,
1.357500076,232.8995361,
1.359166741,233.9729004,
1.360833406,233.9268646,
1.362499952,235.7929382,
1.364166617,234.6594849,
1.365833402,235.8322449,
1.367500067,234.7657318,
1.369166732,234.2669525,
1.370833278,236.2419586,
1.372499943,235.3374023,
1.374166727,237.8976746,
1.375833392,237.0378723,
1.377500057,236.8995209,
1.379166722,237.3724823,
1.380833268,236.6711731,
1.382500052,237.9329529,
1.384166718,238.3541107,
1.385833383,238.3952789,
1.387500048,238.7495117,
1.389166594,238.3980865,
1.390833378,238.8669434,
1.392500043,240.0905609,
1.394166708,239.1658936,
1.395833373,240.4522247,
1.397499919,240.4963989,
1.399166703,240.1696625,
1.400833368,240.0403748,
1.402500033,240.5258484,
1.404166698,241.1314392,
1.405833364,240.2992096,
1.407500029,239.2608643,
1.409166694,241.0529633,
1.410833359,242.1147461,
1.412500024,241.9863281,
1.414166689,241.8875427,
1.415833354,241.8427734,
1.417500019,242.3216858,
1.419166684,242.1342163,
1.420833349,244.1183472,
1.422500014,243.043045,
1.424166799,243.1833801,
1.425833344,244.0581818,
1.42750001,243.5804443,
1.429166675,243.2561798,
1.43083334,245.8050537,
1.432500124,244.5988007,
1.43416667,244.0407867,
1.435833335,245.1457367,
1.4375,244.9733734,
1.439166665,244.6542053,
1.440833449,247.2366943,
1.442499995,245.6028595,
1.44416666,246.8713074,
1.445833325,245.8733826,
1.44749999,245.983429,
1.449166775,245.2791443,
1.45083344,246.9462128,
1.452499986,245.3031616,
1.454166651,248.2269135,
1.455833316,248.6759796,
1.4575001,248.8628998,
1.459166765,249.5949707,
1.460833311,246.3742218,
1.462499976,246.8358154,
1.464166641,247.8172302,
1.465833426,247.8215332,
1.467500091,250.107193,
1.469166636,247.9286652,
1.470833302,249.8289948,
1.472499967,249.3716888,
1.474166751,250.0044708,
1.475833416,248.7787476,
1.477500081,250.3054962,
1.479166627,250.0804291,
1.480833292,248.2613373,
1.482500076,249.2714081,
1.484166741,249.3961792,
1.485833406,251.1057281,
1.487499952,249.7445831,
1.489166617,250.4171753,
1.490833402,251.2929688,
1.492500067,251.176178,
1.494166732,251.3328247,
1.495833278,251.4113159,
1.497499943,252.0475616,
1.499166727,250.6714783,
1.500833392,253.8665161,
1.502500057,252.1899872,
1.504166722,252.0349884,
1.505833268,252.3777466,
1.507500052,252.9610443,
1.509166718,252.8979492,
1.510833383,251.7640839,
1.512500048,253.6192017,
1.514166594,253.7955627,
1.515833378,251.5997314,
1.517500043,253.83284,
1.519166708,253.4455414,
1.520833373,251.6743317,
1.522499919,253.5849457,
1.524166703,253.9494934,
1.525833368,253.7525024,
1.527500033,255.5163574,
1.529166698,253.9601898,
1.530833364,254.8201752,
1.532500029,254.4440308,
1.534166694,255.9935455,
1.535833359,256.0527344,
1.537500024,253.8396759,
1.539166689,256.1283569,
1.540833354,255.9233246,
1.542500019,255.9838257,
1.544166684,254.4727325,
1.545833349,256.1997375,
1.547500014,256.6064453,
1.549166799,253.7706451,
1.550833344,256.8226013,
1.55250001,255.8471527,
1.554166675,255.9574585,
1.55583334,255.4427948,
1.557500124,256.5048218,
1.55916667,255.8626556,
1.560833335,257.2120667,
1.5625,256.8874207,
1.564166665,256.8451538,
1.565833449,256.4595337,
1.567499995,257.2007446,
1.56916666,255.9947357,
1.570833325,257.4016418,
1.57249999,257.9216919,
1.574166775,258.2559814,
1.57583344,258.2920532,
1.577499986,259.0151062,
1.579166651,257.5210876,
1.580833316,258.1840515,
1.5825001,258.5684509,
1.584166765,259.5731201,
1.585833311,259.4051208,
1.587499976,260.6071472,
1.589166641,258.5290833,
1.590833426,258.4379883,
1.592500091,257.9942017,
1.594166636,257.4735718,
1.595833302,258.9479675,
1.597499967,260.8813171,
1.599166751,259.7406616,
1.600833416,259.1612854,
1.602500081,257.9337463,
1.604166627,260.6053162,
1.605833292,260.1738281,
1.607500076,259.5488892,
1.609166741,257.6109619,
1.610833406,257.6990662,
1.612499952,259.7506104,
1.614166617,261.6213684,
1.615833402,261.5575562,
1.617500067,260.9876404,
1.619166732,259.7805176,
1.620833278,260.8065491,
1.622499943,261.1636658,
1.624166727,262.085083,
1.625833392,261.6982422,
1.627500057,260.7247314,
1.629166722,260.9271545,
1.630833268,260.6617432,
1.632500052,260.4267273,
1.634166718,260.3768921,
1.635833383,261.0739746,
1.637500048,260.729248,
1.639166594,262.5933228,
1.640833378,262.0114441,
1.642500043,260.6772461,
1.644166708,261.1739197,
1.645833373,262.3121033,
1.647499919,261.9129944,
1.649166703,262.9234619,
1.650833368,264.1877441,
1.652500033,262.9334106,
1.654166698,263.1253052,
1.655833364,261.1245422,
1.657500029,262.4631653,
1.659166694,261.2521057,
1.660833359,262.9421082,
1.662500024,262.4368591,
1.664166689,262.1515198,
1.665833354,262.5624695,
1.667500019,262.3182373,
1.669166684,263.8138733,
1.670833349,263.7232361,
1.672500014,264.2046509,
1.674166799,265.7437744,
1.675833344,263.1435242,
1.67750001,264.9924927,
1.679166675,264.2370605,
1.68083334,264.5278015,
1.682500124,263.6864014,
1.68416667,264.152771,
1.685833335,264.5647888,
1.6875,264.7688599,
1.689166665,265.4935608,
1.690833449,264.683197,
1.692499995,265.3023987,
1.69416666,263.9435425,
1.695833325,264.877594,
1.69749999,264.6824036,
1.699166775,264.849762,
1.70083344,264.8380737,
1.702499986,264.6406555,
1.704166651,266.3013916,
1.705833316,262.7406616,
1.7075001,265.5085144,
1.709166765,266.2392273,
1.710833311,264.9682617,
1.712499976,265.6903381,
1.714166641,265.6371765,
1.715833426,266.038147,
1.717500091,267.2759705,
1.719166636,266.3237305,
1.720833302,266.8953552,
1.722499967,265.7712402,
1.724166751,265.9211731,
1.725833416,265.9882507,
1.727500081,265.9039917,
1.729166627,266.0824585,
1.730833292,265.4268494,
1.732500076,265.4195251,
1.734166741,266.1563416,
1.735833406,265.8194275,
1.737499952,264.7171936,
1.739166617,265.9671021,
1.740833402,266.0536804,
1.742500067,267.0247192,
1.744166732,267.1463013,
1.745833278,266.8477478,
1.747499943,267.541626,
1.749166727,267.3539734,
1.750833392,265.9472046,
1.752500057,266.1413269,
1.754166722,267.3578186,
1.755833268,266.3118896,
1.757500052,266.3888855,
1.759166718,266.8226013,
1.760833383,267.4267578,
1.762500048,267.6382141,
1.764166594,268.3429565,
1.765833378,266.7020264,
1.767500043,267.2776489,
1.769166708,268.5908203,
1.770833373,268.1039124,
1.772499919,267.0055542,
1.774166703,267.480011,
1.775833368,266.5037231,
1.777500033,265.8630981,
1.779166698,269.4064941,
1.780833364,267.4482422,
1.782500029,266.8668213,
1.784166694,267.5690613,
1.785833359,267.9734192,
1.787500024,268.5327454,
1.789166689,266.3268433,
1.790833354,268.5262451,
1.792500019,266.7720947,
1.794166684,268.8889771,
1.795833349,268.8536377,
1.797500014,267.3899841,
1.799166799,268.5630188,
1.800833344,268.1147156,
1.80250001,266.6430664,
1.804166675,267.5787048,
1.80583334,268.1516418,
1.807500124,268.5507202,
1.80916667,270.3370056,
1.810833335,267.888916,
1.8125,269.1115723,
1.814166665,269.9821167,
1.815833449,269.7002869,
1.817499995,268.8388672,
1.81916666,268.5244751,
1.820833325,268.6899109,
1.82249999,269.5985718,
1.824166775,269.2877197,
1.82583344,268.420929,
1.827499986,269.2507935,
1.829166651,269.7475281,
1.830833316,269.221283,
1.8325001,269.8809204,
1.834166765,271.2082825,
1.835833311,269.2387085,
1.837499976,269.9680481,
1.839166641,268.7480164,
1.840833426,270.2822876,
1.842500091,270.7694092,
1.844166636,270.1494141,
1.845833302,271.9220581,
1.847499967,271.3783875,
1.849166751,269.6574402,
1.850833416,271.0722046,
1.852500081,270.3486023,
1.854166627,271.7530823,
1.855833292,271.7356262,
1.857500076,271.3517151,
1.859166741,267.6557007,
1.860833406,270.4464111,
1.862499952,270.840271,
1.864166617,271.4254456,
1.865833402,270.4155884,
1.867500067,270.8106689,
1.869166732,271.1303406,
1.870833278,271.6923218,
1.872499943,270.8714294,
1.874166727,270.2980652,
1.875833392,271.329071,
1.877500057,271.4284058,
1.879166722,272.7605591,
1.880833268,272.7865601,
1.882500052,271.3114014,
1.884166718,271.114502,
1.885833383,271.7055969,
1.887500048,271.173584,
1.889166594,272.4925232,
1.890833378,271.1448975,
1.892500043,271.1740112,
1.894166708,271.4429321,
1.895833373,270.8948669,
1.897499919,272.1805725,
1.899166703,272.6681213,
1.900833368,273.0741882,
1.902500033,272.712616,
1.904166698,272.9331055,
1.905833364,270.6428833,
1.907500029,273.0386047,
1.909166694,272.5982971,
1.910833359,270.9053955,
1.912500024,272.3890991,
1.914166689,272.0428772,
1.915833354,271.7441101,
1.917500019,272.9559937,
1.919166684,273.1503601,
1.920833349,272.7752991,
1.922500014,273.3105774,
1.924166799,273.316864,
1.925833344,271.8250122,
1.92750001,273.7592773,
1.929166675,272.1206665,
1.93083334,273.9264221,
1.932500124,271.7631226,
1.93416667,275.2968445,
1.935833335,273.4475403,
1.9375,271.664978,
1.939166665,274.2399292,
1.940833449,273.8919983,
1.942499995,273.309906,
1.94416666,272.4611511,
1.945833325,272.759613,
1.94749999,272.4658813,
1.949166775,272.5355225,
1.95083344,273.2140808,
1.952499986,273.6759338,
1.954166651,274.4147949,
1.955833316,273.7892151,
1.9575001,274.1706848,
1.959166765,272.6965637,
1.960833311,274.5769043,
1.962499976,275.0422668,
1.964166641,273.3951416,
1.965833426,274.2875977,
1.967500091,273.366333,
1.969166636,272.0509644,
1.970833302,271.421051,
1.972499967,273.1186218,
1.974166751,274.4112244,
1.975833416,273.8064575,
1.977500081,274.3267822,
1.979166627,273.4762573,
1.980833292,273.4860229,
1.982500076,273.1069031,
1.984166741,272.459198,
1.985833406,272.9467468,
1.987499952,273.4278259,
1.989166617,273.88974,
1.990833402,274.7636414,
1.992500067,274.3265991,
1.994166732,275.042572,
1.995833278,273.4567261,
1.997499943,275.9387207,
1.999166727,273.8910522,
2.000833273,275.210144,
2.002500057,273.7036133,
2.004166603,274.9473267,
2.005833387,275.3320313,
2.007500172,275.4046326,
2.009166718,274.7944641,
2.010833263,273.7611694,
2.012500048,275.1250916,
2.014166594,276.9078674,
2.015833378,275.8241577,
2.017500162,274.875,
2.019166708,273.8713074,
2.020833254,273.6777344,
2.022500038,274.3816833,
2.024166822,274.2012939,
2.025833368,274.7980652,
2.027499914,274.900116,
2.029166698,275.919281,
2.030833244,274.8132935,
2.032500029,274.2431946,
2.034166813,275.6522827,
2.035833359,276.8569336,
2.037499905,275.417572,
2.039166689,275.4569702,
2.040833473,275.5613098,
2.042500019,274.510376,
2.044166803,276.1922607,
2.045833349,273.3707581,
2.047499895,276.2060242,
2.049166679,276.4190674,
2.050833464,276.6911621,
2.05250001,275.8604431,
2.054166555,275.9206848,
2.05583334,275.5560608,
2.057500124,274.2903137,
2.05916667,274.9372253,
2.060833454,275.6525269,
2.0625,276.6654663,
2.064166546,275.1334839,
2.06583333,276.0829163,
2.067500114,276.4395447,
2.06916666,276.8403015,
2.070833445,276.4978027,
2.07249999,276.4075623,
2.074166775,276.7592163,
2.075833321,276.2452393,
2.077500105,276.5420227,
2.079166651,275.1442261,
2.080833197,276.4238281,
2.082499981,276.9467468,
2.084166765,276.6194763,
2.085833311,277.0169373,
2.087500095,274.3554993,
2.089166641,275.9619141,
2.090833426,275.8349304,
2.092499971,274.518219,
2.094166756,275.8952637,
2.095833302,275.4130554,
2.097500086,277.3632507,
2.099166632,276.7445374,
2.100833416,276.5986938,
2.102499962,277.1134949,
2.104166746,275.8858643,
2.105833292,277.098175,
2.107500076,276.2236023,
2.109166622,274.2802429,
2.110833406,277.5331116,
2.112499952,276.4481506,
2.114166737,276.5740967,
2.115833521,275.5108032,
2.117500067,275.9873047,
2.119166613,277.146698,
2.120833397,274.6927795,
2.122499943,277.1986084,
2.124166727,278.2019043,
2.125833273,277.1765137,
2.127500057,278.124115,
2.129166603,277.0589905,
2.130833387,277.5432739,
2.132500172,276.0803528,
2.134166718,277.2926331,
2.135833502,278.1135254,
2.137500048,276.6690063,
2.139166832,277.1335144,
2.140833378,276.9198608,
2.142500162,277.6511841,
2.144166708,276.3923035,
2.145833254,276.2338562,
2.147500038,276.9481812,
2.149166584,276.6808777,
2.150833368,277.0761414,
2.152500153,275.7359924,
2.154166698,276.8150635,
2.155833483,277.8805847,
2.157500029,276.1980286,
2.159166813,275.6624451,
2.160833597,278.4112549,
2.162499905,276.4883118,
2.164166689,277.5686646,
2.165833235,277.0869751,
2.167500019,278.4041748,
2.169166803,277.7997742,
2.170833349,278.1441956,
2.172500134,277.7174377,
2.174166679,275.5913391,
2.175833464,276.6126709,
2.177500248,275.8612671,
2.179166555,276.9207458,
2.18083334,278.1838989,
2.182499886,278.2713928,
2.18416667,277.5954285,
2.185833454,277.3353577,
2.1875,276.3929443,
2.189166784,276.3922424,
2.19083333,278.7064514,
2.192500114,277.7542419,
2.194166899,279.9394531,
2.195833445,276.8032227,
2.19749999,277.5582275,
2.199166536,277.2942505,
2.200833321,278.3623657,
2.202500105,279.0309753,
2.204166651,277.4058533,
2.205833435,278.6584167,
2.207499981,277.9795532,
2.209166765,277.4313049,
2.210833549,276.6848145,
2.212500095,276.7157288,
2.21416688,277.8825684,
2.215833187,277.4554443,
2.217499971,279.9627075,
2.219166756,279.7397156,
2.220833302,278.6612244,
2.222500086,276.780426,
2.224166632,278.6962585,
2.225833416,278.0044861,
2.2275002,279.1372986,
2.229166746,278.6159058,
2.23083353,279.9992981,
2.232499838,277.4745483,
2.234166622,277.6105957,
2.235833406,278.9200134,
2.237499952,279.229126,
2.239166737,277.2882996,
2.240833282,278.2406006,
2.242500067,277.926178,
2.244166851,276.9369507,
2.245833397,279.1464844,
2.247500181,278.2921753,
2.249166727,277.3003845,
2.250833273,277.8858337,
2.252500057,279.5167542,
2.254166603,277.8235168,
2.255833387,279.2572021,
2.257499933,279.6574707,
2.259166718,277.9199829,
2.260833502,278.0696716,
2.262500048,278.4536438,
2.264166832,278.833252,
2.265833378,278.9536438,
2.267500162,278.4504089,
2.269166708,277.8079834,
2.270833254,277.5157166,
2.272500038,279.7205811,
2.274166584,279.043396,
2.275833368,279.269989,
2.277500153,280.2284851,
2.279166698,278.1210632,
2.280833483,278.7640991,
2.282500029,277.2272644,
2.284166813,278.4169617,
2.285833597,279.164032,
2.287499905,278.1493835,
2.289166689,279.5787659,
2.290833235,280.3240051,
2.292500019,279.9143982,
2.294166803,278.3898621,
2.295833349,278.9399414,
2.297500134,278.5088806,
2.299166679,280.1308899,
2.300833464,280.052948,
2.302500248,279.6856384,
2.304166555,279.6941223,
2.30583334,277.6420593,
2.307499886,280.0429993,
2.30916667,278.2388916,
2.310833454,278.5817261,
2.3125,277.8539429,
2.314166784,279.6609192,
2.31583333,278.5825806,
2.317500114,277.877655,
2.319166899,279.0151978,
2.320833445,278.6252747,
2.32249999,279.7756348,
2.324166536,279.9992981,
2.325833321,278.4126587,
2.327500105,277.9405518,
2.329166651,279.3848267,
2.330833435,278.9158325,
2.332499981,278.8190613,
2.334166765,279.5493469,
2.335833549,278.4907227,
2.337500095,277.7975159,
2.33916688,277.7536316,
2.340833187,278.9618835,
2.342499971,280.8641663,
2.344166756,279.7134094,
2.345833302,278.7719727,
2.347500086,278.8177185,
2.349166632,279.8321533,
2.350833416,280.9848022,
2.3525002,280.158783,
2.354166746,279.6532898,
2.35583353,277.9264832,
2.357499838,280.3620911,
2.359166622,280.7851563,
2.360833406,279.0723572,
2.362499952,279.7836304,
2.364166737,279.0641174,
2.365833282,279.3205566,
2.367500067,278.4584656,
2.369166851,277.493042,
2.370833397,279.6001587,
2.372500181,277.6491089,
2.374166727,279.5640259,
2.375833273,278.7428284,
2.377500057,279.3365784,
2.379166603,279.6737366,
2.380833387,278.5934753,
2.382499933,278.7088928,
2.384166718,280.0782166,
2.385833502,279.0151367,
2.387500048,279.3526611,
2.389166832,279.8883972,
2.390833378,280.536438,
2.392500162,280.561615,
2.394166708,278.4953918,
2.395833254,279.2898865,
2.397500038,280.6103821,
2.399166584,280.0231934,
2.400833368,279.6408691,
2.402500153,280.3026123,
2.404166698,279.8940125,
2.405833483,278.6100159,
2.407500029,279.2189941,
2.409166813,279.5657349,
2.410833597,280.6538086,
2.412499905,280.4692993,
2.414166689,280.1844177,
2.415833235,281.7153931,
2.417500019,281.8320007,
2.419166803,279.469696,
2.420833349,279.4394836,
2.422500134,279.7962646,
2.424166679,280.7374573,
2.425833464,280.6767273,
2.427500248,281.8519592,
2.429166555,278.3991089,
2.43083334,280.1425171,
2.432499886,281.1385803,
2.43416667,280.5178833,
2.435833454,281.0414429,
2.4375,279.2852478,
2.439166784,280.3400269,
2.44083333,279.6494141,
2.442500114,281.0751343,
2.444166899,280.5847778,
2.445833445,281.7619629,
2.44749999,280.4018555,
2.449166536,280.1151428,
2.450833321,279.9423218,
2.452500105,279.6573486,
2.454166651,279.1216125,
2.455833435,280.2474365,
2.457499981,278.921875,
2.459166765,281.8988342,
2.460833549,279.7197571,
2.462500095,280.8355713,
2.46416688,281.0836182,
2.465833187,280.6266174,
2.467499971,279.9818115,
2.469166756,280.4621887,
2.470833302,280.4833374,
2.472500086,281.5010681,
2.474166632,281.5170288,
2.475833416,282.1169434,
2.4775002,280.3461914,
2.479166746,280.2507629,
2.48083353,280.1034851,
2.482499838,280.3527222,
2.484166622,280.7090454,
2.485833406,281.4441528,
2.487499952,280.0898743,
2.489166737,280.0197449,
2.490833282,282.1917419,
2.492500067,281.8958435,
2.494166851,281.3234558,
2.495833397,282.078186,
2.497500181,279.1961365,
2.499166727,281.0688171,
2.500833273,279.211853,
2.502500057,283.5323486,
2.504166603,282.8778992,
2.505833387,281.6785889,
2.507499933,280.8411865,
2.509166718,281.9855042,
2.510833502,281.1200256,
2.512500048,279.6971741,
2.514166832,280.8604431,
2.515833378,280.9533386,
2.517500162,281.651947,
2.519166708,280.622467,
2.520833254,280.1010742,
2.522500038,280.8148193,
2.524166584,281.4901123,
2.525833368,281.8479309,
2.527500153,281.9464417,
2.529166698,281.5791016,
2.530833483,281.5079041,
2.532500029,280.9133606,
2.534166813,282.2332458,
2.535833597,280.7775269,
2.537499905,280.7426147,
2.539166689,282.1223755,
2.540833235,279.9481812,
2.542500019,281.9404602,
2.544166803,280.9223022,
2.545833349,281.5105591,
2.547500134,280.9943542,
2.549166679,282.347168,
2.550833464,283.2175598,
2.552500248,281.7481079,
2.554166555,280.6031494,
2.55583334,281.7113037,
2.557499886,280.8384705,
2.55916667,281.1373291,
2.560833454,283.0918274,
2.5625,282.1956177,
2.564166784,281.9352112,
2.56583333,281.2332764,
2.567500114,280.4794312,
2.569166899,280.8871765,
2.570833445,279.6438599,
2.57249999,280.7134705,
2.574166536,282.463562,
2.575833321,280.5713806,
2.577500105,280.5260315,
2.579166651,282.6830139,
2.580833435,282.3992004,
2.582499981,280.2620239,
2.584166765,281.3535767,
2.585833549,282.2723999,
2.587500095,282.1893311,
2.58916688,281.5842285,
2.590833187,281.0972595,
2.592499971,281.0013733,
2.594166756,282.3662109,
2.595833302,280.3704529,
2.597500086,280.5455627,
2.599166632,282.8568726,
2.600833416,281.2332458,
2.6025002,281.7946167,
2.604166746,281.6976013,
2.60583353,281.0436096,
2.607499838,281.1743469,
2.609166622,281.4074402,
2.610833406,282.8442383,
2.612499952,281.3465576,
2.614166737,280.7319336,
2.615833282,281.248291,
2.617500067,282.0057678,
2.619166851,281.4434204,
2.620833397,282.3425598,
2.622500181,282.9198303,
2.624166727,280.4490356,
2.625833273,281.6461182,
2.627500057,280.8153381,
2.629166603,281.518158,
2.630833387,281.6132507,
2.632499933,282.5561218,
2.634166718,280.493866,
2.635833502,280.6392517,
2.637500048,281.164856,
2.639166832,280.3091736,
2.640833378,281.4237366,
2.642500162,283.5107727,
2.644166708,281.4549561,
2.645833254,281.8118896,
2.647500038,281.2169495,
2.649166584,282.1621094,
2.650833368,281.6187439,
2.652500153,282.7436218,
2.654166698,282.6700745,
2.655833483,283.5034485,
2.657500029,283.5610657,
2.659166813,281.3753052,
2.660833597,282.4703064,
2.662499905,282.5943298,
2.664166689,284.1941528,
2.665833235,281.18396,
2.667500019,281.3996277,
2.669166803,281.0939941,
2.670833349,281.5374756,
2.672500134,281.1796265,
2.674166679,282.6260376,
2.675833464,280.9375,
2.677500248,281.1841125,
2.679166555,281.2134705,
2.68083334,282.4082031,
2.682499886,282.4290771,
2.68416667,282.8030396,
2.685833454,283.2358704,
2.6875,283.1014404,
2.689166784,282.2461243,
2.69083333,281.9923706,
2.692500114,283.2231445,
2.694166899,282.991394,
2.695833445,283.0692139,
2.69749999,281.0081177,
2.699166536,282.943573,
2.700833321,281.2293701,
2.702500105,283.4495239,
2.704166651,283.3594666,
2.705833435,282.8365784,
2.707499981,280.7653809,
2.709166765,281.5003052,
2.710833549,281.7945862,
2.712500095,281.8705139,
2.71416688,283.4570618,
2.715833187,283.617981,
2.717499971,282.2190857,
2.719166756,281.9900818,
2.720833302,282.4082947,
2.722500086,282.3068848,
2.724166632,283.2677612,
2.725833416,281.2659912,
2.7275002,282.1931152,
2.729166746,282.7501831,
2.73083353,281.7758179,
2.732499838,282.9949951,
2.734166622,283.0863647,
2.735833406,282.4968567,
2.737499952,282.611908,
2.739166737,282.8642578,
2.740833282,283.3383179,
2.742500067,282.7103271,
2.744166851,283.2981873,
2.745833397,283.6584473,
2.747500181,282.837677,
2.749166727,283.9164429,
2.750833273,281.0756226,
2.752500057,281.9814148,
2.754166603,283.4391785,
2.755833387,281.2951965,
2.757499933,283.561615,
2.759166718,282.9529419,
2.760833502,281.3707581,
2.762500048,283.2906799,
2.764166832,281.5267944,
2.765833378,281.6860352,
2.767500162,282.4824219,
2.769166708,281.0433655,
2.770833254,283.70224,
2.772500038,283.9633484,
2.774166584,281.9998169,
2.775833368,281.6708069,
2.777500153,284.0116577,
2.779166698,282.2129822,
2.780833483,282.5782776,
2.782500029,281.3981323,
2.784166813,282.1942749,
2.785833597,282.4607544,
2.787499905,282.9378357,
2.789166689,283.5438538,
2.790833235,282.250946,
2.792500019,281.6420288,
2.794166803,283.4655762,
2.795833349,283.137207,
2.797500134,282.2472229,
2.799166679,281.7944336,
2.800833464,280.9734802,
2.802500248,282.7316589,
2.804166555,281.5457153,
2.80583334,283.2207642,
2.807499886,281.9112854,
2.80916667,284.0935974,
2.810833454,281.930542,
2.8125,283.8298035,
2.814166784,284.3656311,
2.81583333,283.1070557,
2.817500114,283.8886414,
2.819166899,283.5749817,
2.820833445,282.0710144,
2.82249999,284.1740112,
2.824166536,281.3491516,
2.825833321,283.7402039,
2.827500105,282.3088074,
2.829166651,282.1950684,
2.830833435,283.2108154,
2.832499981,283.250061,
2.834166765,283.5640259,
2.835833549,283.9148254,
2.837500095,283.7218323,
2.83916688,283.5083008,
2.840833187,282.1994934,
2.842499971,282.9493408,
2.844166756,284.2833557,
2.845833302,285.294281,
2.847500086,281.5242615,
2.849166632,283.8407288,
2.850833416,281.7451172,
2.8525002,282.2897644,
2.854166746,282.8858948,
2.85583353,282.6214905,
2.857499838,281.9260559,
2.859166622,281.9315186,
2.860833406,284.4998474,
2.862499952,283.9340515,
2.864166737,283.2364197,
2.865833282,284.2007141,
2.867500067,282.3301392,
2.869166851,284.3082886,
2.870833397,282.9570313,
2.872500181,283.4603271,
2.874166727,282.6031494,
2.875833273,283.602356,
2.877500057,284.0526428,
2.879166603,281.6003723,
2.880833387,283.1971741,
2.882499933,284.5354919,
2.884166718,283.8424377,
2.885833502,282.008606,
2.887500048,282.2182922,
2.889166832,284.1626892,
2.890833378,281.2196045,
2.892500162,282.179718,
2.894166708,284.2080383,
2.895833254,282.239502,
2.897500038,282.882019,
2.899166584,282.104248,
2.900833368,282.6210938,
2.902500153,283.5006409,
2.904166698,282.4799805,
2.905833483,283.080719,
2.907500029,283.7637024,
2.909166813,281.6068115,
2.910833597,282.2272034,
2.912499905,282.4718933,
2.914166689,283.2504883,
2.915833235,282.7833862,
2.917500019,282.2748718,
2.919166803,285.3146057,
2.920833349,284.0184326,
2.922500134,282.6401367,
2.924166679,283.3797302,
2.925833464,283.4185791,
2.927500248,283.1526489,
2.929166555,282.7969666,
2.93083334,282.7590942,
2.932499886,282.9916077,
2.93416667,284.0317383,
2.935833454,283.2376099,
2.9375,284.4720764,
2.939166784,282.6458435,
2.94083333,282.9098816,
2.942500114,282.8593445,
2.944166899,283.2866821,
2.945833445,283.2133484,
2.94749999,283.9862366,
2.949166536,285.0305786,
2.950833321,282.6309509,
2.952500105,283.1040039,
2.954166651,282.6764526,
2.955833435,282.6282654,
2.957499981,283.2705688,
2.959166765,283.4972534,
2.960833549,283.8350525,
2.962500095,283.5036316,
2.96416688,283.6378784,
2.965833187,284.2697754,
2.967499971,284.4263,
2.969166756,283.3703308,
2.970833302,282.4502258,
2.972500086,283.8212891,
2.974166632,283.8266907,
2.975833416,284.1911926,
2.9775002,285.9757385,
2.979166746,283.2113342,
2.98083353,283.9488831,
2.982499838,283.5739441,
2.984166622,285.5904541,
2.985833406,284.375946,
2.987499952,282.4211731,
2.989166737,283.8143616,
2.990833282,283.4516602,
2.992500067,283.9465027,
2.994166851,282.7940979,
2.995833397,282.9634399,
2.997500181,283.7481079,
2.999166727,285.9571228,
3.000833273,283.4894409,
3.002500057,284.8760376,
3.004166603,286.0007629,
3.005833387,284.4321594,
3.007499933,283.5256042,
3.009166718,283.0946655,
3.010833502,284.1191406,
3.012500048,284.5126343,
3.014166832,285.5708008,
3.015833378,285.0879517,
3.017500162,282.5433655,
3.019166708,283.4102478,
3.020833254,283.8979797,
3.022500038,284.4815979,
3.024166584,284.8651123,
3.025833368,283.8215637,
3.027500153,283.546814,
3.029166698,284.9155884,
3.030833483,283.7634583,
3.032500029,284.4091492,
3.034166813,284.8800964,
3.035833597,282.9553833,
3.037499905,283.8020935,
3.039166689,282.9338684,
3.040833235,282.4780579,
3.042500019,283.6395874,
3.044166803,283.9725037,
3.045833349,282.4680176,
3.047500134,283.1369629,
3.049166679,283.831665,
3.050833464,283.6547852,
3.052500248,282.8006287,
3.054166555,283.7526245,
3.05583334,282.6864319,
3.057499886,284.7901306,
3.05916667,283.1902466,
3.060833454,284.1522522,
3.0625,283.4954224,
3.064166784,282.35849,
3.06583333,283.812439,
3.067500114,283.9402466,
3.069166899,284.4425049,
3.070833445,284.4859009,
3.07249999,283.6903381,
3.074166536,284.5819092,
3.075833321,285.3956604,
3.077500105,282.8565063,
3.079166651,283.6373596,
3.080833435,282.2802734,
3.082499981,284.0805054,
3.084166765,283.7496948,
3.085833549,284.5026245,
3.087500095,285.4520569,
3.08916688,284.5652466,
3.090833187,282.5865173,
3.092499971,284.3499451,
3.094166756,283.7341919,
3.095833302,281.8648376,
3.097500086,285.1957703,
3.099166632,284.7336121,
3.100833416,284.2039185,
3.1025002,283.8502197,
3.104166746,283.7094727,
3.10583353,284.8005371,
3.107499838,283.6947021,
3.109166622,283.0357666,
3.110833406,284.4229736,
3.112499952,284.3348389,
3.114166737,284.5898743,
3.115833282,284.3602295,
3.117500067,284.4104614,
3.119166851,282.2368469,
3.120833397,285.5631104,
3.122500181,285.1774597,
3.124166727,285.9379578,
3.125833273,282.5181274,
3.127500057,282.5097351,
3.129166603,285.5980835,
3.130833387,284.7918701,
3.132499933,282.7464905,
3.134166718,283.3731384,
3.135833502,284.2291565,
3.137500048,285.164978,
3.139166832,284.2420349,
3.140833378,282.631134,
3.142500162,284.0221558,
3.144166708,286.4264526,
3.145833254,283.7870178,
3.147500038,283.5864258,
3.149166584,285.0992126,
3.150833368,284.973877,
3.152500153,286.2736816,
3.154166698,284.4545288,
3.155833483,283.5655212,
3.157500029,284.7944641,
3.159166813,283.7132263,
3.160833597,285.329895,
3.162499905,285.3045654,
3.164166689,284.4869995,
3.165833235,283.7434998,
3.167500019,285.6684875,
3.169166803,286.0841675,
3.170833349,283.3186035,
3.172500134,283.5076904,
3.174166679,284.1366272,
3.175833464,283.9000854,
3.177500248,283.9446411,
3.179166555,284.7116699,
3.18083334,284.1889648,
3.182499886,283.6645203,
3.18416667,286.6997681,
3.185833454,283.0109558,
3.1875,284.0014648,
3.189166784,284.8264771,
3.19083333,285.70401,
3.192500114,284.7365417,
3.194166899,284.7754822,
3.195833445,284.647583,
3.19749999,283.6864014,
3.199166536,284.5376282,
3.200833321,283.6021118,
3.202500105,284.5446167,
3.204166651,285.4682617,
3.205833435,285.1184082,
3.207499981,282.348175,
3.209166765,284.1390686,
3.210833549,285.4456177,
3.212500095,284.3214111,
3.21416688,284.144989,
3.215833187,284.1945801,
3.217499971,284.5315552,
3.219166756,283.9293518,
3.220833302,284.5614929,
3.222500086,284.11026,
3.224166632,285.9212341,
3.225833416,284.8621826,
3.2275002,284.0224609,
3.229166746,284.6920776,
3.23083353,284.1230774,
3.232499838,283.8853149,
3.234166622,285.9267578,
3.235833406,283.7040405,
3.237499952,284.6520691,
3.239166737,283.8232117,
3.240833282,284.7915649,
3.242500067,284.7019348,
3.244166851,285.1814575,
3.245833397,284.6014099,
3.247500181,283.9374084,
3.249166727,285.8908997,
3.250833273,285.6820374,
3.252500057,284.6363831,
3.254166603,284.8320923,
3.255833387,285.2769165,
3.257499933,287.0010071,
3.259166718,285.8652344,
3.260833502,284.853302,
3.262500048,284.9039917,
3.264166832,284.7614441,
3.265833378,285.101593,
3.267500162,284.631897,
3.269166708,285.4317017,
3.270833254,284.6896362,
3.272500038,284.4156494,
3.274166584,284.842926,
3.275833368,285.3285522,
3.277500153,285.0993347,
3.279166698,283.9891052,
3.280833483,282.8877563,
3.282500029,284.5924377,
3.284166813,284.0657043,
3.285833597,285.4989319,
3.287499905,285.7253113,
3.289166689,285.2322083,
3.290833235,284.292572,
3.292500019,285.4468994,
3.294166803,285.9212341,
3.295833349,285.8671875,
3.297500134,284.2777405,
3.299166679,284.5359192,
3.300833464,285.8237305,
3.302500248,285.8153687,
3.304166555,285.0954285,
3.30583334,284.8505249,
3.307499886,285.2102051,
3.30916667,283.7325134,
3.310833454,285.8087463,
3.3125,283.986908,
3.314166784,283.6279907,
3.31583333,284.5072937,
3.317500114,284.9754944,
3.319166899,285.3553467,
3.320833445,284.1999817,
3.32249999,285.0412598,
3.324166536,285.6802979,
3.325833321,285.8647156,
3.327500105,285.7151184,
3.329166651,285.2329712,
3.330833435,283.5609436,
3.332499981,284.2153931,
3.334166765,283.797821,
3.335833549,284.9396667,
3.337500095,285.9829102,
3.33916688,286.6339722,
3.340833187,284.0471191,
3.342499971,284.8154602,
3.344166756,285.1636963,
3.345833302,284.2512207,
3.347500086,284.994812,
3.349166632,286.021759,
3.350833416,284.6929626,
3.3525002,285.1043701,
3.354166746,285.4862366,
3.35583353,286.1656494,
3.357499838,285.1573792,
3.359166622,285.6056213,
3.360833406,283.5621338,
3.362499952,285.0874939,
3.364166737,285.0108032,
3.365833282,284.1265869,
3.367500067,285.8294678,
3.369166851,285.7505493,
3.370833397,284.7924194,
3.372500181,285.5296021,
3.374166727,284.2380066,
3.375833273,284.4899902,
3.377500057,286.1562195,
3.379166603,286.5309753,
3.380833387,286.5223999,
3.382499933,284.8605652,
3.384166718,285.0343628,
3.385833502,285.2538147,
3.387500048,284.8517151,
3.389166832,285.3364563,
3.390833378,283.7046204,
3.392500162,285.5993042,
3.394166708,284.3813782,
3.395833254,286.8446655,
3.397500038,284.2477722,
3.399166584,284.1882935,
3.400833368,285.0006104,
3.402500153,284.9212646,
3.404166698,284.9702759,
3.405833483,286.7816162,
3.407500029,284.4822388,
3.409166813,285.2956848,
3.410833597,285.9109802,
3.412499905,285.7201843,
3.414166689,285.0670166,
3.415833235,284.6585693,
3.417500019,284.1903687,
3.419166803,284.9943237,
3.420833349,286.8102722,
3.422500134,285.3773804,
3.424166679,282.7271423,
3.425833464,284.4017029,
3.427500248,284.4785767,
3.429166555,284.4739075,
3.43083334,285.5892029,
3.432499886,286.1930542,
3.43416667,284.377655,
3.435833454,284.4408264,
3.4375,285.710022,
3.439166784,284.2428284,
3.44083333,284.8828735,
3.442500114,284.545166,
3.444166899,285.9510193,
3.445833445,285.3869934,
3.44749999,285.1693115,
3.449166536,285.661499,
3.450833321,284.4547424,
3.452500105,285.0501099,
3.454166651,284.0570679,
3.455833435,284.6496582,
3.457499981,285.3835754,
3.459166765,285.4332886,
3.460833549,285.5528564,
3.462500095,283.2744446,
3.46416688,285.4823914,
3.465833187,284.848053,
3.467499971,283.1196899,
3.469166756,285.1676331,
3.470833302,283.265625,
3.472500086,285.272522,
3.474166632,284.8580933,
3.475833416,285.7903137,
3.4775002,286.1033936,
3.479166746,285.6082764,
3.48083353,286.3993225,
3.482499838,285.0180359,
3.484166622,286.0106812,
3.485833406,285.502594,
3.487499952,284.6705933,
3.489166737,285.7613525,
3.490833282,286.0472412,
3.492500067,286.1357727,
3.494166851,284.2301636,
3.495833397,284.8719177,
3.497500181,285.776886,
3.499166727,283.8034973,
3.500833273,285.8280334,
3.502500057,284.3374329,
3.504166603,285.0739136,
3.505833387,285.7930298,
3.507499933,286.1437683,
3.509166718,285.710907,
3.510833502,285.375061,
3.512500048,286.1197815,
3.514166832,286.3325195,
3.515833378,284.7243347,
3.517500162,285.6673279,
3.519166708,285.9310913,
3.520833254,282.7885437,
3.522500038,286.0000305,
3.524166584,284.8554077,
3.525833368,284.8187561,
3.527500153,288.6884155,
3.529166698,286.303894,
3.530833483,286.3370361,
3.532500029,285.7812195,
3.534166813,285.4101868,
3.535833597,284.5611877,
3.537499905,285.8065796,
3.539166689,285.0426025,
3.540833235,283.4657593,
3.542500019,285.1460266,
3.544166803,284.6679382,
3.545833349,285.9014587,
3.547500134,286.3652649,
3.549166679,286.0820923,
3.550833464,285.2915039,
3.552500248,284.1592102,
3.554166555,286.1444092,
3.55583334,285.4981995,
3.557499886,284.9093018,
3.55916667,284.6973572,
3.560833454,285.0650024,
3.5625,287.4216003,
3.564166784,283.8395996,

