1,,
Time (min),Intensity (a.u.),
0.0008333333535,27.2712822,
0.002500000177,27.0538826,
0.004166666884,27.20582962,
0.005833333358,27.25555992,
0.007500000298,27.25048256,
0.009166667238,26.92854691,
0.01083333418,26.93055916,
0.01250000019,27.21916962,
0.01416666713,27.04440498,
0.01583333313,27.07339859,
0.01750000194,27.41474724,
0.01916666701,27.16789436,
0.02083333395,27.17072105,
0.02250000089,26.97866821,
0.02416666783,27.16529465,
0.02583333477,27.63352585,
0.02749999985,26.96727753,
0.02916666679,27.0747776,
0.03083333373,27.09113121,
0.03250000253,27.29089737,
0.03416666761,27.00226021,
0.03583333641,27.1902771,
0.03750000149,27.16475677,
0.03916667029,27.22733307,
0.04083333537,27.09991455,
0.04250000045,26.93031311,
0.04416666925,26.88461113,
0.04583333433,27.33193207,
0.04750000313,27.27670097,
0.04916666821,27.31332016,
0.05083333328,26.97393417,
0.05250000209,27.14847374,
0.05416666716,27.58940506,
0.05583333597,27.03108406,
0.05750000104,26.90327072,
0.05916666612,27.28227806,
0.06083333492,27.52178383,
0.0625,27.34941101,
0.06416667253,26.93189049,
0.0658333376,27.3192234,
0.06750000268,27.71311378,
0.06916666776,26.88595772,
0.07083333284,27.11315918,
0.07249999791,26.99617004,
0.07416667044,26.82190895,
0.07583333552,27.18246651,
0.0775000006,27.31341362,
0.07916666567,27.46307945,
0.08083333075,27.23041725,
0.08250000328,27.01276588,
0.08416666836,26.92890167,
0.08583333343,27.33983612,
0.08749999851,27.21664619,
0.08916666359,26.43769073,
0.09083333611,27.19820023,
0.09250000119,26.84835243,
0.09416666627,26.90139198,
0.09583333135,27.49696922,
0.09749999642,27.45736694,
0.09916666895,27.5159626,
0.100833334,27.16508865,
0.1024999991,27.79413986,
0.1041666642,27.07520866,
0.1058333293,27.46621513,
0.1075000018,26.56862068,
0.1091666669,27.27659416,
0.1108333319,27.17857552,
0.112499997,27.22358513,
0.1141666621,27.39344215,
0.1158333346,27.6774826,
0.1174999997,27.67927361,
0.1191666648,26.46683502,
0.1208333299,27.04127312,
0.1224999949,27.27140427,
0.1241666749,27.40781593,
0.1258333325,27.16505051,
0.1274999976,27.70604897,
0.1291666627,27.4294529,
0.1308333278,26.63045311,
0.1325000077,27.16261864,
0.1341666728,27.00024033,
0.1358333379,26.96572685,
0.137500003,27.02982521,
0.1391666681,27.1838398,
0.1408333331,27.29778481,
0.1424999982,27.37018013,
0.1441666782,27.10485458,
0.1458333284,27.80890465,
0.1475000083,27.23618317,
0.1491666585,27.21243286,
0.1508333385,27.1989212,
0.1525000036,27.36029434,
0.1541666687,27.16113663,
0.1558333337,27.45025063,
0.1574999988,27.13892555,
0.1591666639,27.26412392,
0.1608333439,27.35267067,
0.162499994,26.86395073,
0.164166674,27.06192589,
0.1658333242,27.49325562,
0.1675000042,27.72117615,
0.1691666692,27.24737358,
0.1708333343,27.67035294,
0.1724999994,27.36237907,
0.1741666645,27.7210865,
0.1758333296,26.91855049,
0.1775000095,27.36709595,
0.1791666597,27.07229805,
0.1808333397,27.36832047,
0.1824999899,27.00899887,
0.1841666698,27.55692101,
0.1858333498,27.37734413,
0.1875,27.70270157,
0.18916668,27.36586571,
0.1908333302,26.98253441,
0.1925000101,26.93561745,
0.1941666752,27.47202873,
0.1958333403,26.80401039,
0.1975000054,26.94286728,
0.1991666704,27.41395378,
0.2008333355,27.16913986,
0.2025000155,27.17948341,
0.2041666657,27.02652931,
0.2058333457,27.06462288,
0.2074999958,27.03654861,
0.2091666758,27.63627434,
0.2108333409,27.58055115,
0.212500006,27.16184235,
0.214166671,27.38301277,
0.2158333361,27.33756638,
0.2175000012,27.40536118,
0.2191666812,27.33625412,
0.2208333313,27.19307327,
0.2225000113,27.45240784,
0.2241666615,27.29175377,
0.2258333415,27.50935173,
0.2275000066,27.41528702,
0.2291666716,26.86312866,
0.2308333367,27.49147034,
0.2325000018,27.56994438,
0.2341666669,27.17992973,
0.2358333468,27.39939117,
0.237499997,27.24018288,
0.239166677,26.95463753,
0.2408333272,27.24876404,
0.2425000072,27.471632,
0.2441666722,27.17408371,
0.2458333373,27.5843811,
0.2475000024,27.20883179,
0.2491666675,27.14377213,
0.2508333325,27.30983925,
0.2524999976,27.20848274,
0.2541666627,26.85464859,
0.2558333278,27.80755043,
0.2574999928,26.89103889,
0.2591666579,27.05318069,
0.2608333528,26.99042892,
0.2624999881,27.36023712,
0.264166683,27.52243042,
0.2658333182,27.16104889,
0.2675000131,27.10079002,
0.2691666484,27.55853462,
0.2708333433,27.00682831,
0.2725000083,27.03914642,
0.2741666734,27.13223267,
0.2758333385,27.51785278,
0.2775000036,27.54427528,
0.2791666687,27.37883186,
0.2808333337,27.44092751,
0.2824999988,27.13646317,
0.2841666937,27.07445908,
0.285833329,27.28408623,
0.287499994,27.42931938,
0.2891666591,27.35494423,
0.290833354,27.01457405,
0.2925000191,26.81826591,
0.2941666543,26.97449875,
0.2958333194,27.37561607,
0.2975000143,27.74998283,
0.2991666794,26.97344589,
0.3008333445,27.49360085,
0.3024999797,27.05204773,
0.3041666746,27.46129608,
0.3058333397,27.18572617,
0.3075000048,27.99717522,
0.3091666996,27.05979156,
0.3108333349,27.43343163,
0.3125,26.95856285,
0.3141666651,27.56814003,
0.31583336,27.27373886,
0.317500025,27.23565865,
0.3191666603,26.73045349,
0.3208333254,27.35383224,
0.3225000203,26.96072578,
0.3241666853,27.14818954,
0.3258333504,27.26698494,
0.3274999857,26.8453083,
0.3291666806,26.9482708,
0.3308333457,27.12649155,
0.3325000107,27.17285156,
0.3341666758,26.83341408,
0.3358333409,26.99683189,
0.337500006,26.93193436,
0.339166671,26.76250839,
0.3408333361,27.46679688,
0.342500031,27.47349358,
0.3441666663,27.49900246,
0.3458333313,26.97205734,
0.3474999964,27.37446976,
0.3491666913,27.55237007,
0.3508333564,27.24888039,
0.3524999917,27.20257378,
0.3541666567,27.13579178,
0.3558333516,27.80916786,
0.3575000167,27.44732666,
0.3591666818,27.1451149,
0.360833317,27.68827057,
0.3625000119,27.14968681,
0.364166677,27.08223152,
0.3658333421,26.98270416,
0.3675000072,27.16897774,
0.3691666722,27.26189041,
0.3708333373,27.62736511,
0.3725000024,27.56464195,
0.3741666675,27.37701416,
0.3758333623,27.51417732,
0.3774999976,26.9983902,
0.3791666627,27.10559464,
0.3808333278,27.56828499,
0.3825000226,27.50393295,
0.3841666877,27.34582138,
0.385833323,27.40510368,
0.3874999881,27.31906128,
0.389166683,26.78867722,
0.390833348,27.02290916,
0.3925000131,27.14818573,
0.3941666484,27.37612915,
0.3958333433,27.14674377,
0.3975000083,27.13223267,
0.3991666734,27.14079666,
0.4008333385,27.49557686,
0.4025000036,27.1123333,
0.4041666687,27.14209938,
0.4058333337,26.83432198,
0.4074999988,27.31835556,
0.4091666937,27.27039146,
0.410833329,27.4761982,
0.412499994,27.32173729,
0.4141666591,26.58791542,
0.415833354,27.78510857,
0.4175000191,27.34091759,
0.4191666543,27.38449287,
0.4208333194,26.89815712,
0.4225000143,27.48449135,
0.4241666794,27.04100037,
0.4258333445,27.08191109,
0.4274999797,26.76148415,
0.4291666746,26.66128349,
0.4308333397,27.0572567,
0.4325000048,26.93377876,
0.4341666996,26.84251976,
0.4358333349,26.79813385,
0.4375,27.42144775,
0.4391666651,27.31628609,
0.44083336,27.44967461,
0.442500025,27.56985474,
0.4441666603,27.33987999,
0.4458333254,26.78500557,
0.4475000203,27.34604836,
0.4491666853,26.85976982,
0.4508333504,27.2608757,
0.4524999857,26.95343399,
0.4541666806,26.97792244,
0.4558333457,27.07905579,
0.4575000107,27.04061508,
0.4591666758,27.15595436,
0.4608333409,27.57399559,
0.462500006,27.69228745,
0.464166671,26.96191406,
0.4658333361,26.95038986,
0.467500031,27.06352615,
0.4691666663,27.75150871,
0.4708333313,27.17530441,
0.4724999964,27.25764275,
0.4741666913,26.82097626,
0.4758333564,26.90772629,
0.4774999917,26.87798119,
0.4791666567,27.39316368,
0.4808333516,27.26185799,
0.4825000167,27.33878136,
0.4841666818,27.12304497,
0.485833317,27.43846703,
0.4875000119,27.38228226,
0.489166677,27.66726494,
0.4908333421,27.40275002,
0.4925000072,27.26368523,
0.4941666722,27.22343063,
0.4958333373,27.0030117,
0.4975000024,27.06496811,
0.4991666675,27.27663612,
0.5008333325,27.25993156,
0.5024999976,27.37311554,
0.5041666627,27.72628784,
0.5058333278,27.17948341,
0.5074999928,27.33035851,
0.5091666579,27.43615723,
0.510833323,27.46385384,
0.5124999881,27.13441658,
0.5141666532,27.09275627,
0.5158333182,27.22857094,
0.5175000429,27.62430954,
0.5191666484,27.47283363,
0.5208333135,27.31248474,
0.5224999785,27.45038033,
0.5241667032,27.45896149,
0.5258333683,27.15416908,
0.5274999738,26.9077282,
0.5291666389,27.09311104,
0.5308333635,27.12601471,
0.5325000286,27.3698349,
0.5341666341,27.65886116,
0.5358333588,27.51291847,
0.5375000238,27.58141518,
0.5391666889,27.48931313,
0.540833354,27.04490662,
0.5424999595,27.24506569,
0.5441666842,27.19335175,
0.5458333492,27.51399422,
0.5475000143,27.2322731,
0.5491666794,27.3218708,
0.5508333445,27.48064613,
0.5525000095,26.98849869,
0.5541666746,27.53343201,
0.5558333993,26.64810371,
0.5575000048,26.96434784,
0.5591666698,27.21000671,
0.5608333349,26.59160614,
0.5625,27.09686661,
0.5641667247,26.74462891,
0.5658333302,26.83629036,
0.5674999952,27.32338142,
0.5691667199,27.38957787,
0.5708333254,26.89941406,
0.5725000501,27.08887672,
0.5741666555,27.76426506,
0.5758333206,27.54519844,
0.5775000453,27.24381828,
0.5791666508,27.12561798,
0.5808333755,27.02752686,
0.5825000405,26.99673462,
0.584166646,27.47262764,
0.5858333707,27.19650078,
0.5874999762,27.2330761,
0.5891667008,27.1015873,
0.5908333659,27.11694145,
0.5924999714,27.085186,
0.5941666961,27.14851761,
0.5958333611,27.43850708,
0.5975000262,27.50287247,
0.5991666913,27.5903244,
0.6008332968,27.12794685,
0.6025000215,27.55030632,
0.6041666865,27.17479897,
0.6058333516,27.69080925,
0.6075000167,27.04693604,
0.6091666818,27.27734947,
0.6108333468,27.51131439,
0.6125000119,27.37147141,
0.614166677,27.05366707,
0.6158333421,26.91877556,
0.6175000072,27.03380203,
0.6191666722,27.21301842,
0.6208333373,27.40857506,
0.622500062,27.36096001,
0.6241666675,26.92149925,
0.6258333325,26.87642479,
0.6274999976,27.06739807,
0.6291666627,27.12763596,
0.6308333874,27.45115089,
0.6324999928,27.12318611,
0.6341666579,27.56413841,
0.6358333826,27.34595299,
0.6374999881,27.36636162,
0.6391667128,27.65374947,
0.6408333182,27.84647179,
0.6424999833,27.6981163,
0.644166708,27.45273209,
0.6458333135,27.63380814,
0.6475000381,27.77257538,
0.6491667032,26.86907387,
0.6508333087,27.32880402,
0.6525000334,27.51576996,
0.6541666389,26.7549305,
0.6558333635,27.45273972,
0.6575000286,27.12761116,
0.6591666341,27.1911087,
0.6608333588,26.93107414,
0.6625000238,27.10337448,
0.6641666889,27.18575478,
0.665833354,27.26841354,
0.6674999595,27.35008812,
0.6691666842,27.5009594,
0.6708333492,27.21254158,
0.6725000143,27.29402351,
0.6741666794,26.72483826,
0.6758333445,27.13024902,
0.6775000095,27.25650787,
0.6791666746,27.3693161,
0.6808333993,27.4393959,
0.6825000048,27.03910065,
0.6841666698,27.5527153,
0.6858333349,27.24582672,
0.6875,27.94448853,
0.6891667247,26.93404198,
0.6908333302,27.11870766,
0.6924999952,27.63887787,
0.6941667199,27.02331924,
0.6958333254,27.09670448,
0.6975000501,27.06782722,
0.6991666555,27.10600662,
0.7008333206,27.27068901,
0.7025000453,27.07919693,
0.7041666508,27.39488983,
0.7058333755,27.23742676,
0.7075000405,27.50091553,
0.709166646,27.56099319,
0.7108333707,26.9088192,
0.7124999762,26.67892075,
0.7141667008,27.38946724,
0.7158333659,26.92078972,
0.7174999714,27.3423748,
0.7191666961,27.11719704,
0.7208333611,26.49843788,
0.7225000262,27.57853317,
0.7241666913,27.49821281,
0.7258332968,27.00159264,
0.7275000215,27.14725876,
0.7291666865,27.68040657,
0.7308333516,27.34923744,
0.7325000167,27.27821541,
0.7341666818,27.51208115,
0.7358333468,27.59682846,
0.7375000119,27.70290565,
0.739166677,27.40222549,
0.7408333421,27.31201553,
0.7425000072,27.24965477,
0.7441666722,27.46961212,
0.7458333373,26.85538101,
0.747500062,27.16237259,
0.7491666675,27.37163734,
0.7508333325,27.16314507,
0.7524999976,27.2667942,
0.7541666627,26.76351357,
0.7558333874,27.51841164,
0.7574999928,27.01609039,
0.7591666579,27.39709091,
0.7608333826,26.6080265,
0.7624999881,27.25814056,
0.7641667128,27.12182236,
0.7658333182,26.87029266,
0.7674999833,27.22337341,
0.769166708,26.88201714,
0.7708333135,27.10637093,
0.7725000381,27.58264542,
0.7741667032,27.53098869,
0.7758333087,27.60664177,
0.7775000334,26.83490944,
0.7791666389,27.15378571,
0.7808333635,27.89766502,
0.7825000286,27.32435989,
0.7841666341,27.23004723,
0.7858333588,27.41180038,
0.7875000238,27.4296093,
0.7891666889,27.30084801,
0.790833354,27.1318779,
0.7924999595,27.35165787,
0.7941666842,27.3056488,
0.7958333492,27.66539574,
0.7975000143,26.92911148,
0.7991666794,27.46411324,
0.8008333445,27.18578148,
0.8025000095,27.18766022,
0.8041666746,27.15859413,
0.8058333993,27.27101326,
0.8075000048,27.11153603,
0.8091666698,27.17360687,
0.8108333349,27.14680672,
0.8125,27.13976097,
0.8141667247,26.91513824,
0.8158333302,27.4212265,
0.8174999952,27.39759254,
0.8191667199,26.96375847,
0.8208333254,27.01023674,
0.8225000501,27.48876953,
0.8241666555,26.8297348,
0.8258333206,27.00354385,
0.8275000453,27.31216049,
0.8291666508,27.21634865,
0.8308333755,27.24196625,
0.8325000405,27.22427177,
0.834166646,27.63489532,
0.8358333707,27.06269836,
0.8374999762,27.12098885,
0.8391667008,27.25305748,
0.8408333659,27.24075699,
0.8424999714,27.14062691,
0.8441666961,27.26793861,
0.8458333611,27.42902565,
0.8475000262,27.47575188,
0.8491666913,27.19408798,
0.8508332968,26.94235229,
0.8525000215,27.55872154,
0.8541666865,27.29897118,
0.8558333516,27.20106316,
0.8575000167,27.29200172,
0.8591666818,27.11913872,
0.8608333468,27.05391884,
0.8625000119,26.65519142,
0.864166677,27.01089859,
0.8658333421,27.28239632,
0.8675000072,27.37426186,
0.8691666722,27.5280304,
0.8708333373,26.91861725,
0.872500062,26.83474541,
0.8741666675,27.29259109,
0.8758333325,26.88548279,
0.8774999976,27.5991993,
0.8791666627,27.51362991,
0.8808333874,26.89472771,
0.8824999928,27.55631828,
0.8841666579,26.9763031,
0.8858333826,26.9576931,
0.8874999881,26.91368484,
0.8891667128,26.81592369,
0.8908333182,27.26723099,
0.8924999833,26.92722511,
0.894166708,26.75725174,
0.8958333135,27.13949203,
0.8975000381,27.14355469,
0.8991667032,27.08163643,
0.9008333087,27.69714355,
0.9025000334,27.55264473,
0.9041666389,27.3360424,
0.9058333635,27.2545948,
0.9075000286,27.19924164,
0.9091666341,27.18357849,
0.9108333588,26.90740967,
0.9125000238,27.48667526,
0.9141666889,27.42580986,
0.915833354,27.23093224,
0.9174999595,27.13740158,
0.9191666842,26.98207855,
0.9208333492,27.32796669,
0.9225000143,26.77547073,
0.9241666794,27.59953117,
0.9258333445,26.53214836,
0.9275000095,26.87934875,
0.9291666746,27.1097641,
0.9308333993,27.42388153,
0.9325000048,27.12611008,
0.9341666698,27.11899757,
0.9358333349,27.36366463,
0.9375,26.95145226,
0.9391667247,27.00554085,
0.9408333302,27.19489861,
0.9424999952,27.69273567,
0.9441667199,26.82766914,
0.9458333254,27.40728378,
0.9475000501,27.0095768,
0.9491666555,27.54857826,
0.9508333206,26.96019554,
0.9525000453,27.32794762,
0.9541666508,27.2572403,
0.9558333755,26.79478836,
0.9575000405,27.54420662,
0.959166646,26.64653206,
0.9608333707,27.71063423,
0.9624999762,26.86458778,
0.9641667008,27.0920887,
0.9658333659,26.73602676,
0.9674999714,27.15358734,
0.9691666961,27.40693474,
0.9708333611,28.00758743,
0.9725000262,27.25110435,
0.9741666913,26.86061478,
0.9758332968,27.14541245,
0.9775000215,27.24617767,
0.9791666865,27.27585411,
0.9808333516,26.92272949,
0.9825000167,26.80076027,
0.9841666818,27.24387169,
0.9858333468,27.39575195,
0.9875000119,27.20566559,
0.989166677,26.98156357,
0.9908333421,27.53489685,
0.9925000072,26.80642891,
0.9941666722,26.81489944,
0.9958333373,26.91508865,
0.997500062,27.31656647,
0.9991666675,27.34984589,
1.000833273,27.26663399,
1.002500057,27.09648323,
1.004166722,27.42718124,
1.005833387,27.36327553,
1.007500052,27.19604874,
1.009166598,26.87412453,
1.010833383,27.0345211,
1.012500048,27.16394997,
1.014166713,27.50010681,
1.015833378,27.00495911,
1.017500043,26.91691971,
1.019166708,26.69465256,
1.020833373,27.01786613,
1.022500038,27.51202011,
1.024166703,27.41273499,
1.025833368,27.19096756,
1.027500033,27.14712334,
1.029166698,26.98299217,
1.030833364,27.6836586,
1.032500029,27.40552139,
1.034166694,27.16623688,
1.035833359,27.28379631,
1.037500024,27.23682976,
1.039166689,27.35726929,
1.040833354,27.0248642,
1.042500019,27.36270523,
1.044166684,27.43496704,
1.045833349,26.98038101,
1.047500014,27.19495392,
1.049166679,26.91457939,
1.050833344,27.11375618,
1.05250001,26.97980309,
1.054166675,27.41707039,
1.05583334,27.02332687,
1.057500005,26.87085533,
1.05916667,27.20838737,
1.060833335,27.37301445,
1.0625,27.32471466,
1.064166665,27.240942,
1.06583333,27.13332176,
1.067499995,27.18380356,
1.06916666,27.53953171,
1.070833325,26.75530624,
1.07249999,26.14253998,
1.074166775,31.00394058,
1.07583344,35.69919586,
1.077499986,40.99904251,
1.079166651,40.02213287,
1.080833316,52.7331543,
1.0825001,47.4169693,
1.084166765,52.29571915,
1.085833311,60.42889786,
1.087499976,55.80892563,
1.089166641,59.73724365,
1.090833426,72.19663239,
1.092500091,73.41685486,
1.094166636,76.30189514,
1.095833302,79.87540436,
1.097499967,84.46292114,
1.099166751,86.31573486,
1.100833416,89.11075592,
1.102500081,92.21029663,
1.104166627,96.42334747,
1.105833292,98.41833496,
1.107500076,99.89008331,
1.109166741,104.3829575,
1.110833406,106.7532196,
1.112499952,108.3713837,
1.114166617,111.7164459,
1.115833402,112.8571472,
1.117500067,114.9652328,
1.119166732,117.3384399,
1.120833278,118.9675293,
1.122499943,121.7016296,
1.124166727,124.49366,
1.125833392,125.5535355,
1.127500057,127.4135742,
1.129166722,129.0197601,
1.130833268,131.431427,
1.132500052,133.7443237,
1.134166718,135.6547241,
1.135833383,137.195694,
1.137500048,137.5537567,
1.139166594,139.2130432,
1.140833378,141.7472382,
1.142500043,142.1979218,
1.144166708,145.0744781,
1.145833373,146.7517242,
1.147499919,148.784729,
1.149166703,148.6194916,
1.150833368,150.3774872,
1.152500033,152.9388428,
1.154166698,153.2462463,
1.155833364,153.9729462,
1.157500029,157.1642761,
1.159166694,154.8977356,
1.160833359,159.0119019,
1.162500024,160.3598328,
1.164166689,160.6445007,
1.165833354,161.1296997,
1.167500019,163.0671844,
1.169166684,163.6076813,
1.170833349,165.5869293,
1.172500014,166.0526886,
1.174166799,168.1462708,
1.175833344,168.9354095,
1.17750001,170.1441193,
1.179166675,172.6772766,
1.18083334,172.6182251,
1.182500124,172.4548645,
1.18416667,172.3995514,
1.185833335,174.7812042,
1.1875,176.04245,
1.189166665,176.3948975,
1.190833449,177.642746,
1.192499995,177.5931244,
1.19416666,179.6514587,
1.195833325,178.8479156,
1.19749999,181.8119812,
1.199166775,181.6725159,
1.20083344,182.8150482,
1.202499986,183.5077362,
1.204166651,185.5276489,
1.205833316,183.9431152,
1.2075001,186.0503082,
1.209166765,186.5821228,
1.210833311,189.2319489,
1.212499976,188.0898743,
1.214166641,188.5903015,
1.215833426,190.3583832,
1.217500091,189.523468,
1.219166636,191.6888123,
1.220833302,190.8351746,
1.222499967,192.4169312,
1.224166751,192.5515747,
1.225833416,194.039505,
1.227500081,194.5536957,
1.229166627,195.8246155,
1.230833292,195.9936218,
1.232500076,196.2091064,
1.234166741,197.1398315,
1.235833406,197.7771912,
1.237499952,198.6203156,
1.239166617,198.7997437,
1.240833402,200.7294922,
1.242500067,200.9309845,
1.244166732,201.5133362,
1.245833278,201.897934,
1.247499943,201.825592,
1.249166727,201.6079407,
1.250833392,204.3873749,
1.252500057,203.9051666,
1.254166722,205.2246704,
1.255833268,204.1452789,
1.257500052,205.575882,
1.259166718,205.2332916,
1.260833383,206.390274,
1.262500048,208.638382,
1.264166594,206.5243988,
1.265833378,207.0229797,
1.267500043,209.0736237,
1.269166708,209.4552002,
1.270833373,210.7686005,
1.272499919,209.6587982,
1.274166703,210.6129761,
1.275833368,210.7855072,
1.277500033,211.8131409,
1.279166698,210.9475555,
1.280833364,213.6485291,
1.282500029,211.7129974,
1.284166694,213.7510529,
1.285833359,213.5088501,
1.287500024,214.335907,
1.289166689,214.9627838,
1.290833354,214.326828,
1.292500019,214.5154419,
1.294166684,215.4818268,
1.295833349,216.7819366,
1.297500014,216.2932281,
1.299166799,217.6754913,
1.300833344,217.8369751,
1.30250001,217.5763092,
1.304166675,218.6157074,
1.30583334,219.0417328,
1.307500124,219.2266083,
1.30916667,217.693985,
1.310833335,218.3528442,
1.3125,219.8140259,
1.314166665,218.8487854,
1.315833449,221.3459625,
1.317499995,220.4237213,
1.31916666,221.7961578,
1.320833325,221.5517426,
1.32249999,222.2957764,
1.324166775,222.4268951,
1.32583344,221.9596863,
1.327499986,222.0731812,
1.329166651,223.5524597,
1.330833316,224.0245972,
1.3325001,224.2306824,
1.334166765,224.6192627,
1.335833311,225.3431854,
1.337499976,225.3634186,
1.339166641,224.0981598,
1.340833426,226.3384399,
1.342500091,226.3414307,
1.344166636,226.8339539,
1.345833302,227.8825836,
1.347499967,226.3679047,
1.349166751,227.6779175,
1.350833416,228.2978821,
1.352500081,228.7369232,
1.354166627,228.9695892,
1.355833292,227.8255768,
1.357500076,228.961731,
1.359166741,229.1704712,
1.360833406,228.5371857,
1.362499952,227.7430115,
1.364166617,230.0462341,
1.365833402,230.0092621,
1.367500067,231.3517914,
1.369166732,232.9388275,
1.370833278,232.3668518,
1.372499943,232.4341888,
1.374166727,232.8175659,
1.375833392,233.374649,
1.377500057,232.3446655,
1.379166722,232.7634125,
1.380833268,233.5145264,
1.382500052,231.9886017,
1.384166718,231.2339172,
1.385833383,233.2676849,
1.387500048,233.8866119,
1.389166594,234.2385712,
1.390833378,232.4933624,
1.392500043,234.1966553,
1.394166708,234.1816101,
1.395833373,235.0323639,
1.397499919,235.3025208,
1.399166703,233.3820343,
1.400833368,234.0131989,
1.402500033,236.5351257,
1.404166698,238.5626984,
1.405833364,238.0438385,
1.407500029,236.2712708,
1.409166694,237.649353,
1.410833359,237.923996,
1.412500024,237.4599304,
1.414166689,238.1320038,
1.415833354,238.1921082,
1.417500019,237.3491058,
1.419166684,237.4327087,
1.420833349,238.8964233,
1.422500014,239.633316,
1.424166799,236.8805695,
1.425833344,237.3514862,
1.42750001,238.9906769,
1.429166675,237.9277496,
1.43083334,239.8227234,
1.432500124,238.3736267,
1.43416667,239.5960999,
1.435833335,241.6837463,
1.4375,239.675827,
1.439166665,241.3415222,
1.440833449,242.0051727,
1.442499995,241.1714172,
1.44416666,239.3187103,
1.445833325,240.9664764,
1.44749999,241.1764984,
1.449166775,240.6048431,
1.45083344,241.6065063,
1.452499986,242.3295135,
1.454166651,242.8045654,
1.455833316,241.3117218,
1.4575001,242.9366455,
1.459166765,242.8514862,
1.460833311,243.6098022,
1.462499976,242.45755,
1.464166641,242.4135284,
1.465833426,244.8706665,
1.467500091,243.7059937,
1.469166636,243.05896,
1.470833302,245.1932678,
1.472499967,243.8009644,
1.474166751,243.2533264,
1.475833416,243.6404724,
1.477500081,244.9993744,
1.479166627,246.4166107,
1.480833292,244.4491882,
1.482500076,244.3082275,
1.484166741,246.1628265,
1.485833406,245.7091827,
1.487499952,245.0371399,
1.489166617,245.749588,
1.490833402,246.4443665,
1.492500067,246.0198212,
1.494166732,246.8719177,
1.495833278,246.4666595,
1.497499943,244.7674408,
1.499166727,244.5980988,
1.500833392,244.7450104,
1.502500057,245.8575287,
1.504166722,246.092514,
1.505833268,247.7064667,
1.507500052,247.3183594,
1.509166718,247.2398071,
1.510833383,248.0728302,
1.512500048,247.9238586,
1.514166594,247.5250549,
1.515833378,248.413208,
1.517500043,249.1112366,
1.519166708,248.8589325,
1.520833373,248.4507446,
1.522499919,247.8574829,
1.524166703,249.2394867,
1.525833368,249.0805817,
1.527500033,249.3852692,
1.529166698,252.3319702,
1.530833364,249.8185577,
1.532500029,249.6397247,
1.534166694,247.3854218,
1.535833359,248.9437866,
1.537500024,250.2041779,
1.539166689,249.4551392,
1.540833354,249.6160126,
1.542500019,250.6829834,
1.544166684,249.8549805,
1.545833349,249.6785431,
1.547500014,250.4377441,
1.549166799,249.7536163,
1.550833344,252.073822,
1.55250001,251.3544312,
1.554166675,251.2843933,
1.55583334,250.6833954,
1.557500124,250.7038422,
1.55916667,250.9921722,
1.560833335,251.4085236,
1.5625,252.5151672,
1.564166665,251.9923401,
1.565833449,251.7357178,
1.567499995,253.7342377,
1.56916666,254.0936737,
1.570833325,251.7347107,
1.57249999,251.815979,
1.574166775,252.595932,
1.57583344,252.418457,
1.577499986,253.3636169,
1.579166651,252.593399,
1.580833316,254.067627,
1.5825001,253.2774811,
1.584166765,252.9868469,
1.585833311,253.1551361,
1.587499976,252.9788055,
1.589166641,252.4313965,
1.590833426,254.3226166,
1.592500091,252.5148315,
1.594166636,254.1621399,
1.595833302,254.412384,
1.597499967,253.0238647,
1.599166751,253.9919586,
1.600833416,254.2847748,
1.602500081,256.8742065,
1.604166627,254.6699066,
1.605833292,255.0733948,
1.607500076,254.7860413,
1.609166741,254.6844177,
1.610833406,254.9703369,
1.612499952,255.3933868,
1.614166617,255.553299,
1.615833402,255.0213318,
1.617500067,254.9994812,
1.619166732,256.2951965,
1.620833278,255.6043243,
1.622499943,255.3741608,
1.624166727,256.789978,
1.625833392,256.1815186,
1.627500057,255.613205,
1.629166722,257.2460022,
1.630833268,256.1313477,
1.632500052,255.5027313,
1.634166718,256.9199524,
1.635833383,257.7423096,
1.637500048,256.737854,
1.639166594,257.8080444,
1.640833378,256.7550964,
1.642500043,257.1727905,
1.644166708,256.2081604,
1.645833373,255.369812,
1.647499919,255.7562256,
1.649166703,256.8385315,
1.650833368,257.6498413,
1.652500033,257.9139099,
1.654166698,257.4733582,
1.655833364,258.6506653,
1.657500029,257.7404175,
1.659166694,257.5900269,
1.660833359,257.6218872,
1.662500024,258.6388855,
1.664166689,257.6332703,
1.665833354,259.2953186,
1.667500019,258.3026733,
1.669166684,258.03302,
1.670833349,258.0834351,
1.672500014,258.3211365,
1.674166799,258.4978638,
1.675833344,258.5774536,
1.67750001,258.7047424,
1.679166675,259.3438416,
1.68083334,259.7033997,
1.682500124,258.3964539,
1.68416667,259.7454224,
1.685833335,258.2882996,
1.6875,259.7101135,
1.689166665,260.3042603,
1.690833449,259.0146484,
1.692499995,259.7247314,
1.69416666,257.7608337,
1.695833325,259.8147278,
1.69749999,258.3830261,
1.699166775,259.931488,
1.70083344,259.512146,
1.702499986,259.3817444,
1.704166651,260.2699585,
1.705833316,259.8918152,
1.7075001,261.4553833,
1.709166765,263.0147705,
1.710833311,260.6890259,
1.712499976,261.2237854,
1.714166641,260.8072205,
1.715833426,261.4422302,
1.717500091,261.0960083,
1.719166636,261.5577087,
1.720833302,259.677948,
1.722499967,261.8681641,
1.724166751,260.8908691,
1.725833416,261.1954956,
1.727500081,260.9440918,
1.729166627,260.8185425,
1.730833292,262.3701782,
1.732500076,260.4771423,
1.734166741,260.4776611,
1.735833406,261.9782104,
1.737499952,259.4785461,
1.739166617,260.9491577,
1.740833402,262.5686951,
1.742500067,260.2901306,
1.744166732,261.0005798,
1.745833278,262.7949829,
1.747499943,262.4180603,
1.749166727,262.8074646,
1.750833392,264.6849976,
1.752500057,260.9415588,
1.754166722,261.2721252,
1.755833268,263.618866,
1.757500052,262.2277527,
1.759166718,260.5402527,
1.760833383,263.3777161,
1.762500048,262.0032043,
1.764166594,263.0084839,
1.765833378,263.4380493,
1.767500043,263.8258667,
1.769166708,264.675354,
1.770833373,261.4740906,
1.772499919,262.8762512,
1.774166703,263.6669922,
1.775833368,263.6831055,
1.777500033,262.1379395,
1.779166698,261.6624756,
1.780833364,263.2542114,
1.782500029,263.4005127,
1.784166694,264.1532288,
1.785833359,264.0977783,
1.787500024,262.9423218,
1.789166689,264.0092773,
1.790833354,262.8887024,
1.792500019,263.8600159,
1.794166684,263.5801392,
1.795833349,262.5951843,
1.797500014,264.3507996,
1.799166799,262.5463867,
1.800833344,264.0706787,
1.80250001,263.3489685,
1.804166675,263.7640686,
1.80583334,264.0085144,
1.807500124,265.8476563,
1.80916667,264.554718,
1.810833335,265.4767151,
1.8125,266.7129517,
1.814166665,265.3445129,
1.815833449,264.756012,
1.817499995,264.5262451,
1.81916666,264.2209778,
1.820833325,265.9351807,
1.82249999,264.2651062,
1.824166775,264.9623413,
1.82583344,265.8966064,
1.827499986,264.2878418,
1.829166651,264.7501831,
1.830833316,265.5129395,
1.8325001,264.9291687,
1.834166765,265.1682739,
1.835833311,265.4656677,
1.837499976,265.6047974,
1.839166641,265.822998,
1.840833426,264.0410767,
1.842500091,264.9279785,
1.844166636,264.9193115,
1.845833302,265.9669189,
1.847499967,266.12854,
1.849166751,264.7846069,
1.850833416,265.9236145,
1.852500081,266.1347046,
1.854166627,265.7413635,
1.855833292,267.5968933,
1.857500076,266.293335,
1.859166741,265.2528992,
1.860833406,265.8867188,
1.862499952,266.2742615,
1.864166617,266.2576599,
1.865833402,266.9657593,
1.867500067,266.6505127,
1.869166732,266.4204712,
1.870833278,266.4502869,
1.872499943,266.0205994,
1.874166727,266.0198364,
1.875833392,267.138855,
1.877500057,266.1534424,
1.879166722,266.568512,
1.880833268,267.1330872,
1.882500052,266.0563354,
1.884166718,266.0264587,
1.885833383,266.8374329,
1.887500048,266.8257141,
1.889166594,268.0079346,
1.890833378,267.420105,
1.892500043,267.3636475,
1.894166708,267.249054,
1.895833373,266.5217285,
1.897499919,266.8425293,
1.899166703,267.0507507,
1.900833368,267.2125549,
1.902500033,265.5589905,
1.904166698,267.2321777,
1.905833364,267.6314087,
1.907500029,269.5473022,
1.909166694,267.9688721,
1.910833359,268.7043152,
1.912500024,266.4426575,
1.914166689,266.737915,
1.915833354,268.4217834,
1.917500019,268.1934204,
1.919166684,268.0120239,
1.920833349,268.403595,
1.922500014,267.5801697,
1.924166799,268.7245178,
1.925833344,265.6166687,
1.92750001,267.8256531,
1.929166675,269.0862427,
1.93083334,267.8453979,
1.932500124,267.7709351,
1.93416667,269.1417236,
1.935833335,268.1543884,
1.9375,268.8891296,
1.939166665,266.9725647,
1.940833449,268.3356934,
1.942499995,268.7269592,
1.94416666,268.7271423,
1.945833325,268.3404846,
1.94749999,270.6517944,
1.949166775,268.9123535,
1.95083344,266.9385071,
1.952499986,269.7535095,
1.954166651,268.081665,
1.955833316,269.2643127,
1.9575001,269.7020569,
1.959166765,268.560791,
1.960833311,270.7463074,
1.962499976,269.6205139,
1.964166641,268.0959167,
1.965833426,267.6068726,
1.967500091,266.3989563,
1.969166636,268.9018555,
1.970833302,268.8529663,
1.972499967,269.9024048,
1.974166751,268.2138977,
1.975833416,268.5235901,
1.977500081,268.0505371,
1.979166627,269.440918,
1.980833292,269.6481934,
1.982500076,268.4184265,
1.984166741,269.9958191,
1.985833406,269.58078,
1.987499952,269.3863831,
1.989166617,268.2151184,
1.990833402,271.787323,
1.992500067,269.0080872,
1.994166732,269.4290161,
1.995833278,269.1596375,
1.997499943,269.7559204,
1.999166727,269.0937195,
2.000833273,270.7072754,
2.002500057,270.9528809,
2.004166603,269.9928894,
2.005833387,269.8529663,
2.007500172,269.3699036,
2.009166718,269.8614197,
2.010833263,269.3878784,
2.012500048,270.1172791,
2.014166594,269.0753479,
2.015833378,268.9222717,
2.017500162,270.1942139,
2.019166708,269.8006287,
2.020833254,270.2701111,
2.022500038,271.2344971,
2.024166822,270.4252625,
2.025833368,269.4300537,
2.027499914,269.9998779,
2.029166698,269.131073,
2.030833244,272.223999,
2.032500029,270.1517334,
2.034166813,270.7167358,
2.035833359,270.3303528,
2.037499905,270.1582642,
2.039166689,270.8327026,
2.040833473,271.3114624,
2.042500019,270.3945007,
2.044166803,271.3496704,
2.045833349,269.3327026,
2.047499895,270.9057312,
2.049166679,270.2286377,
2.050833464,269.7885742,
2.05250001,271.3207703,
2.054166555,271.5260315,
2.05583334,270.1495667,
2.057500124,272.6116333,
2.05916667,270.0795593,
2.060833454,270.6777649,
2.0625,271.7966919,
2.064166546,270.793396,
2.06583333,272.0287781,
2.067500114,273.7514343,
2.06916666,273.5576477,
2.070833445,271.5457458,
2.07249999,270.8745728,
2.074166775,271.7495117,
2.075833321,271.9599609,
2.077500105,271.58078,
2.079166651,270.3859558,
2.080833197,271.9815063,
2.082499981,272.5692749,
2.084166765,271.914917,
2.085833311,271.4475403,
2.087500095,271.5118713,
2.089166641,271.743988,
2.090833426,270.9370422,
2.092499971,270.6550598,
2.094166756,272.0905457,
2.095833302,271.8846741,
2.097500086,271.0531921,
2.099166632,272.5064392,
2.100833416,271.6114197,
2.102499962,271.3773499,
2.104166746,272.9553223,
2.105833292,272.8893433,
2.107500076,270.8644409,
2.109166622,270.6835022,
2.110833406,271.7571411,
2.112499952,272.2615356,
2.114166737,271.7357178,
2.115833521,273.7858887,
2.117500067,271.8021545,
2.119166613,273.3601685,
2.120833397,271.4243774,
2.122499943,272.3095703,
2.124166727,270.5720215,
2.125833273,272.3310547,
2.127500057,272.7333069,
2.129166603,272.5802612,
2.130833387,270.7990417,
2.132500172,273.1093445,
2.134166718,271.2202148,
2.135833502,271.2358398,
2.137500048,271.4941101,
2.139166832,271.8237915,
2.140833378,270.9271851,
2.142500162,272.0612793,
2.144166708,271.717804,
2.145833254,271.3538818,
2.147500038,274.1342163,
2.149166584,271.5908813,
2.150833368,270.9197388,
2.152500153,273.7200317,
2.154166698,273.4899597,
2.155833483,273.2591553,
2.157500029,273.234375,
2.159166813,274.0254517,
2.160833597,273.7131042,
2.162499905,272.2250366,
2.164166689,274.1863708,
2.165833235,274.2194519,
2.167500019,274.1867676,
2.169166803,273.2732544,
2.170833349,274.1348267,
2.172500134,271.5429382,
2.174166679,272.513855,
2.175833464,272.3007202,
2.177500248,273.337677,
2.179166555,272.8203125,
2.18083334,273.9234314,
2.182499886,273.5875854,
2.18416667,273.4440918,
2.185833454,273.2544861,
2.1875,273.8853455,
2.189166784,273.3757935,
2.19083333,274.0385132,
2.192500114,273.5465393,
2.194166899,272.2640076,
2.195833445,273.7427673,
2.19749999,273.1444092,
2.199166536,272.7408142,
2.200833321,272.4455261,
2.202500105,273.6251831,
2.204166651,273.8510742,
2.205833435,274.8330994,
2.207499981,273.547821,
2.209166765,274.6256104,
2.210833549,272.9403992,
2.212500095,273.6069031,
2.21416688,273.9683228,
2.215833187,273.8266296,
2.217499971,275.384613,
2.219166756,272.4276733,
2.220833302,273.9862061,
2.222500086,273.6202393,
2.224166632,273.2407227,
2.225833416,273.3186035,
2.2275002,273.1435547,
2.229166746,274.776947,
2.23083353,274.2202454,
2.232499838,274.474884,
2.234166622,274.5224304,
2.235833406,273.8466492,
2.237499952,272.9693604,
2.239166737,273.9340515,
2.240833282,274.1563721,
2.242500067,274.6481934,
2.244166851,275.8275757,
2.245833397,273.5108337,
2.247500181,275.0873413,
2.249166727,273.1480103,
2.250833273,276.3442688,
2.252500057,273.5826721,
2.254166603,273.7741089,
2.255833387,274.921051,
2.257499933,274.030304,
2.259166718,274.3125916,
2.260833502,274.8166809,
2.262500048,273.3856812,
2.264166832,274.190918,
2.265833378,274.6655273,
2.267500162,274.6089783,
2.269166708,275.9883423,
2.270833254,273.6148682,
2.272500038,274.6795044,
2.274166584,274.7955322,
2.275833368,274.4670715,
2.277500153,275.7030945,
2.279166698,274.3126221,
2.280833483,272.585022,
2.282500029,273.4171753,
2.284166813,274.3745117,
2.285833597,275.0313416,
2.287499905,275.0338745,
2.289166689,274.7693481,
2.290833235,274.6503601,
2.292500019,273.4547119,
2.294166803,275.3697815,
2.295833349,274.7771912,
2.297500134,274.7356567,
2.299166679,275.8586731,
2.300833464,275.7005005,
2.302500248,273.2097778,
2.304166555,276.160614,
2.30583334,274.3046875,
2.307499886,275.8071899,
2.30916667,274.6603699,
2.310833454,274.7884521,
2.3125,276.4802246,
2.314166784,274.7694092,
2.31583333,275.419342,
2.317500114,274.8034058,
2.319166899,276.2132263,
2.320833445,274.866333,
2.32249999,277.6669006,
2.324166536,277.223053,
2.325833321,273.7052307,
2.327500105,275.4940491,
2.329166651,278.7254333,
2.330833435,276.5983276,
2.332499981,274.0804749,
2.334166765,272.3952026,
2.335833549,275.8136597,
2.337500095,275.9136353,
2.33916688,277.5513916,
2.340833187,275.0308228,
2.342499971,277.5114746,
2.344166756,275.5112305,
2.345833302,275.5853577,
2.347500086,273.6644897,
2.349166632,275.9494629,
2.350833416,274.4389343,
2.3525002,276.6608582,
2.354166746,277.1394958,
2.35583353,271.9613037,
2.357499838,277.7607727,
2.359166622,278.4325867,
2.360833406,275.5730896,
2.362499952,275.5335693,
2.364166737,276.1025085,
2.365833282,275.6445007,
2.367500067,275.8963928,
2.369166851,274.7845459,
2.370833397,277.6980286,
2.372500181,275.5490112,
2.374166727,276.2475891,
2.375833273,275.9873657,
2.377500057,276.7930603,
2.379166603,275.7842407,
2.380833387,278.1701965,
2.382499933,276.2327271,
2.384166718,276.9796448,
2.385833502,274.4415283,
2.387500048,275.6150818,
2.389166832,276.4891663,
2.390833378,276.4358215,
2.392500162,273.5785828,
2.394166708,273.5716553,
2.395833254,275.3302002,
2.397500038,276.4549255,
2.399166584,276.0583801,
2.400833368,277.5049133,
2.402500153,276.3096008,
2.404166698,274.9656677,
2.405833483,277.2548523,
2.407500029,277.2616272,
2.409166813,276.4408264,
2.410833597,276.6592407,
2.412499905,276.8828125,
2.414166689,276.0207214,
2.415833235,275.1136169,
2.417500019,277.1644592,
2.419166803,276.4429016,
2.420833349,275.9721069,
2.422500134,275.3442993,
2.424166679,275.0541382,
2.425833464,276.6815491,
2.427500248,277.0244446,
2.429166555,276.3198547,
2.43083334,278.6151733,
2.432499886,275.7908936,
2.43416667,277.9757385,
2.435833454,276.3782349,
2.4375,276.3760071,
2.439166784,276.5492859,
2.44083333,277.8135986,
2.442500114,273.9273071,
2.444166899,278.3681946,
2.445833445,275.4951782,
2.44749999,277.6925659,
2.449166536,278.0383301,
2.450833321,277.6650085,
2.452500105,277.5629272,
2.454166651,277.1880188,
2.455833435,276.890625,
2.457499981,275.5428772,
2.459166765,275.9560242,
2.460833549,276.5809326,
2.462500095,277.7830811,
2.46416688,276.9949036,
2.465833187,277.2527161,
2.467499971,276.5523071,
2.469166756,277.2406616,
2.470833302,278.6689453,
2.472500086,277.5272827,
2.474166632,277.7507324,
2.475833416,276.7413025,
2.4775002,277.1397095,
2.479166746,275.8721008,
2.48083353,277.7354126,
2.482499838,278.138855,
2.484166622,278.420166,
2.485833406,277.0973206,
2.487499952,276.0392151,
2.489166737,276.445343,
2.490833282,278.7702942,
2.492500067,277.4241028,
2.494166851,277.5021667,
2.495833397,280.7420044,
2.497500181,276.6236877,
2.499166727,276.3459473,
2.500833273,278.7394714,
2.502500057,277.6267395,
2.504166603,278.6108398,
2.505833387,278.4289856,
2.507499933,276.7849121,
2.509166718,277.2857666,
2.510833502,277.0638428,
2.512500048,276.4804077,
2.514166832,279.2424622,
2.515833378,278.7179871,
2.517500162,277.1826782,
2.519166708,276.5404358,
2.520833254,278.4629822,
2.522500038,277.4412231,
2.524166584,275.8717651,
2.525833368,278.5788879,
2.527500153,277.0513306,
2.529166698,277.2141418,
2.530833483,278.95755,
2.532500029,276.4632263,
2.534166813,278.1014099,
2.535833597,277.9725342,
2.537499905,277.1929321,
2.539166689,277.2037048,
2.540833235,277.7308655,
2.542500019,276.2843933,
2.544166803,277.0229797,
2.545833349,278.6958923,
2.547500134,278.7118225,
2.549166679,277.9597778,
2.550833464,279.490448,
2.552500248,276.536377,
2.554166555,276.7529297,
2.55583334,278.9170532,
2.557499886,276.2496643,
2.55916667,278.0666504,
2.560833454,278.1196289,
2.5625,277.6364136,
2.564166784,279.2618103,
2.56583333,277.2315674,
2.567500114,277.8654785,
2.569166899,278.702301,
2.570833445,277.4533691,
2.57249999,279.6115723,
2.574166536,278.2647095,
2.575833321,278.1122131,
2.577500105,277.8385315,
2.579166651,278.650238,
2.580833435,277.2129211,
2.582499981,279.0030518,
2.584166765,276.4674683,
2.585833549,277.9701843,
2.587500095,278.9663696,
2.58916688,278.6099854,
2.590833187,278.9745483,
2.592499971,278.7621765,
2.594166756,278.3682251,
2.595833302,278.3029785,
2.597500086,276.7571716,
2.599166632,277.5871277,
2.600833416,276.8554077,
2.6025002,278.3094482,
2.604166746,279.7221069,
2.60583353,276.8512878,
2.607499838,278.0121765,
2.609166622,280.9200134,
2.610833406,278.0005188,
2.612499952,278.0202026,
2.614166737,278.0122986,
2.615833282,278.2129822,
2.617500067,278.5642395,
2.619166851,277.164917,
2.620833397,278.5911865,
2.622500181,279.595459,
2.624166727,278.8693542,
2.625833273,279.7207947,
2.627500057,278.1236572,
2.629166603,278.5460205,
2.630833387,278.0263672,
2.632499933,278.93573,
2.634166718,277.6162109,
2.635833502,279.377594,
2.637500048,278.00177,
2.639166832,277.7532043,
2.640833378,278.7486572,
2.642500162,278.2522888,
2.644166708,280.0576172,
2.645833254,278.6210022,
2.647500038,277.9506226,
2.649166584,279.6670532,
2.650833368,278.067749,
2.652500153,279.0306702,
2.654166698,279.1447144,
2.655833483,279.4068298,
2.657500029,280.0915527,
2.659166813,279.3703613,
2.660833597,276.9032593,
2.662499905,277.6308289,
2.664166689,277.7827759,
2.665833235,279.1931458,
2.667500019,278.921936,
2.669166803,278.7294617,
2.670833349,277.8770142,
2.672500134,280.1101074,
2.674166679,279.5591431,
2.675833464,279.3916016,
2.677500248,279.2313843,
2.679166555,278.5500183,
2.68083334,278.1251221,
2.682499886,281.3853149,
2.68416667,278.9581909,
2.685833454,279.8624878,
2.6875,278.7345886,
2.689166784,279.6044006,
2.69083333,278.3811035,
2.692500114,281.2434692,
2.694166899,278.166748,
2.695833445,279.9264832,
2.69749999,281.0650635,
2.699166536,279.2064819,
2.700833321,279.2805176,
2.702500105,278.954834,
2.704166651,278.8088379,
2.705833435,279.2077942,
2.707499981,280.6025085,
2.709166765,278.0022888,
2.710833549,279.0315247,
2.712500095,277.6985779,
2.71416688,279.3432617,
2.715833187,279.5658264,
2.717499971,280.410553,
2.719166756,281.4687195,
2.720833302,279.5567322,
2.722500086,281.2476501,
2.724166632,278.4830322,
2.725833416,279.0662842,
2.7275002,279.8881836,
2.729166746,280.2337036,
2.73083353,278.2165527,
2.732499838,279.7345276,
2.734166622,280.4061584,
2.735833406,278.0219727,
2.737499952,279.5820618,
2.739166737,279.0016174,
2.740833282,280.521759,
2.742500067,279.3512573,
2.744166851,281.3834839,
2.745833397,280.8772583,
2.747500181,279.427887,
2.749166727,279.0697937,
2.750833273,279.495697,
2.752500057,279.4555054,
2.754166603,278.9469299,
2.755833387,279.4015503,
2.757499933,278.9966125,
2.759166718,279.2936401,
2.760833502,280.4953003,
2.762500048,279.5785217,
2.764166832,278.442749,
2.765833378,280.203186,
2.767500162,278.9085693,
2.769166708,280.9610596,
2.770833254,279.3398132,
2.772500038,279.0168457,
2.774166584,279.8848877,
2.775833368,280.4790344,
2.777500153,279.7652588,
2.779166698,278.9588623,
2.780833483,281.1629028,
2.782500029,280.0718994,
2.784166813,280.0946045,
2.785833597,281.6004944,
2.787499905,279.4744263,
2.789166689,279.8021851,
2.790833235,280.8442993,
2.792500019,279.3032227,
2.794166803,279.276123,
2.795833349,280.5253601,
2.797500134,281.0418701,
2.799166679,279.6906738,
2.800833464,280.3746033,
2.802500248,280.2931519,
2.804166555,280.6077271,
2.80583334,279.6109009,
2.807499886,278.5969543,
2.80916667,280.2970886,
2.810833454,280.6054382,
2.8125,280.4169006,
2.814166784,280.7363892,
2.81583333,280.2458801,
2.817500114,279.226593,
2.819166899,281.2576599,
2.820833445,281.4050293,
2.82249999,280.0354614,
2.824166536,280.2490234,
2.825833321,281.1290283,
2.827500105,280.2721558,
2.829166651,281.8664246,
2.830833435,280.5215454,
2.832499981,281.2198181,
2.834166765,280.2078247,
2.835833549,280.1676636,
2.837500095,279.232666,
2.83916688,279.9412537,
2.840833187,282.4508667,
2.842499971,280.4180908,
2.844166756,280.3406372,
2.845833302,281.7333679,
2.847500086,281.0577087,
2.849166632,280.0864868,
2.850833416,279.2943115,
2.8525002,281.0158691,
2.854166746,281.8637085,
2.85583353,280.2987671,
2.857499838,281.1902771,
2.859166622,281.7934265,
2.860833406,281.4213562,
2.862499952,280.1452637,
2.864166737,280.0941162,
2.865833282,279.089447,
2.867500067,281.5091553,
2.869166851,280.3905945,
2.870833397,279.1057739,
2.872500181,280.8869324,
2.874166727,280.8118591,
2.875833273,281.3356323,
2.877500057,279.574707,
2.879166603,281.1024475,
2.880833387,280.0453491,
2.882499933,281.1040649,
2.884166718,279.8469849,
2.885833502,280.6431274,
2.887500048,281.0851746,
2.889166832,280.7764587,
2.890833378,283.2536926,
2.892500162,280.942688,
2.894166708,281.1503906,
2.895833254,281.2494202,
2.897500038,275.96875,
2.899166584,280.9378052,
2.900833368,279.9370422,
2.902500153,281.862915,
2.904166698,279.5016479,
2.905833483,280.6452637,
2.907500029,279.7946167,
2.909166813,281.4111328,
2.910833597,280.0247803,
2.912499905,280.9899902,
2.914166689,279.9369202,
2.915833235,282.3190308,
2.917500019,282.0578918,
2.919166803,281.2405701,
2.920833349,280.7907104,
2.922500134,280.8262024,
2.924166679,280.3148193,
2.925833464,281.3265686,
2.927500248,281.727356,
2.929166555,280.5812378,
2.93083334,282.1743774,
2.932499886,280.7550659,
2.93416667,280.5317993,
2.935833454,281.0924072,
2.9375,281.3511658,
2.939166784,281.7998352,
2.94083333,281.0779114,
2.942500114,279.6633606,
2.944166899,279.7341614,
2.945833445,279.1039124,
2.94749999,280.0710449,
2.949166536,280.0238037,
2.950833321,279.1189575,
2.952500105,279.6404419,
2.954166651,279.7800598,
2.955833435,281.2307434,
2.957499981,281.1893311,
2.959166765,280.3186035,
2.960833549,279.1764526,
2.962500095,281.4878235,
2.96416688,279.8772278,
2.965833187,280.8142395,
2.967499971,281.5532837,
2.969166756,280.1230469,
2.970833302,280.66922,
2.972500086,282.459137,
2.974166632,280.6904297,
2.975833416,279.0315857,
2.9775002,280.861908,
2.979166746,283.1488647,
2.98083353,280.4496155,
2.982499838,282.0415039,
2.984166622,281.460083,
2.985833406,279.8063965,
2.987499952,280.0238953,
2.989166737,280.7485046,
2.990833282,281.3336792,
2.992500067,281.9689636,
2.994166851,282.2039185,
2.995833397,280.4458618,
2.997500181,281.2955933,
2.999166727,279.7825317,
3.000833273,281.3257446,
3.002500057,281.8121338,
3.004166603,281.2943726,
3.005833387,281.2178345,
3.007499933,282.4691467,
3.009166718,281.7914124,
3.010833502,281.4360962,
3.012500048,281.5259705,
3.014166832,281.8195496,
3.015833378,281.2344971,
3.017500162,280.2844238,
3.019166708,279.4266968,
3.020833254,281.9787598,
3.022500038,280.6167908,
3.024166584,282.2427979,
3.025833368,281.2943726,
3.027500153,281.3510742,
3.029166698,282.0394897,
3.030833483,281.3167725,
3.032500029,282.0367432,
3.034166813,279.4874878,
3.035833597,282.4601135,
3.037499905,281.3163757,
3.039166689,282.2132874,
3.040833235,280.247345,
3.042500019,282.7307434,
3.044166803,282.7546387,
3.045833349,282.6727905,
3.047500134,281.3693542,
3.049166679,279.611908,
3.050833464,281.2635498,
3.052500248,282.3937683,
3.054166555,282.6793213,
3.05583334,282.7971191,
3.057499886,281.1116028,
3.05916667,281.8848572,
3.060833454,281.04422,
3.0625,280.0840454,
3.064166784,281.3303528,
3.06583333,282.1920471,
3.067500114,282.9642944,
3.069166899,282.7017822,
3.070833445,282.0136108,
3.07249999,282.8608093,
3.074166536,281.5964355,
3.075833321,281.7821655,
3.077500105,283.0581055,
3.079166651,282.04422,
3.080833435,281.8688049,
3.082499981,280.2425842,
3.084166765,281.1217957,
3.085833549,282.650238,
3.087500095,281.7295227,
3.08916688,281.8955688,
3.090833187,281.08255,
3.092499971,281.197052,
3.094166756,282.5950623,
3.095833302,281.9145508,
3.097500086,281.0842896,
3.099166632,283.0748596,
3.100833416,280.3789063,
3.1025002,281.4583435,
3.104166746,281.9006958,
3.10583353,280.5716248,
3.107499838,282.6109009,
3.109166622,280.638916,
3.110833406,284.7433472,
3.112499952,282.6646423,
3.114166737,281.834137,
3.115833282,280.1886597,
3.117500067,281.5871277,
3.119166851,282.5721436,
3.120833397,280.4258118,
3.122500181,281.241333,
3.124166727,281.3619385,
3.125833273,280.7481689,
3.127500057,280.9505615,
3.129166603,283.0398254,
3.130833387,281.0365906,
3.132499933,282.6998596,
3.134166718,282.2802429,
3.135833502,282.5571289,
3.137500048,281.8097839,
3.139166832,281.1932678,
3.140833378,282.8499146,
3.142500162,281.4966431,
3.144166708,282.7481689,
3.145833254,282.4923096,
3.147500038,282.1593933,
3.149166584,282.4916992,
3.150833368,284.1356201,
3.152500153,281.8320618,
3.154166698,281.3527527,
3.155833483,283.1224976,
3.157500029,282.4659424,
3.159166813,282.2660522,
3.160833597,284.1401367,
3.162499905,280.9635315,
3.164166689,281.8860168,
3.165833235,280.1052246,
3.167500019,282.270813,
3.169166803,282.5093994,
3.170833349,284.8766174,
3.172500134,282.4464417,
3.174166679,282.964447,
3.175833464,281.0438232,
3.177500248,281.097168,
3.179166555,281.8182373,
3.18083334,283.8149719,
3.182499886,280.9539185,
3.18416667,282.0668945,
3.185833454,282.046814,
3.1875,280.793396,
3.189166784,283.7827148,
3.19083333,282.0296326,
3.192500114,281.3716431,
3.194166899,282.9612122,
3.195833445,282.3387146,
3.19749999,282.7740479,
3.199166536,281.886261,
3.200833321,283.3221741,
3.202500105,285.2956543,
3.204166651,282.8980103,
3.205833435,281.0765991,
3.207499981,283.1318359,
3.209166765,282.8398438,
3.210833549,281.0147095,
3.212500095,281.2540894,
3.21416688,284.6104431,
3.215833187,281.7186584,
3.217499971,283.3325195,
3.219166756,282.2450256,
3.220833302,282.3679199,
3.222500086,281.5023804,
3.224166632,281.0254822,
3.225833416,282.634552,
3.2275002,282.2395325,
3.229166746,281.4745483,
3.23083353,282.5568237,
3.232499838,282.0115356,
3.234166622,282.6304016,
3.235833406,282.427063,
3.237499952,282.75354,
3.239166737,282.3469543,
3.240833282,281.3935547,
3.242500067,282.4319153,
3.244166851,282.4702454,
3.245833397,282.3882446,
3.247500181,283.1816406,
3.249166727,283.6218567,
3.250833273,281.3934631,
3.252500057,281.4115906,
3.254166603,282.8009033,
3.255833387,284.130188,
3.257499933,283.4482422,
3.259166718,283.5500793,
3.260833502,283.3040466,
3.262500048,281.6524658,
3.264166832,282.0211487,
3.265833378,283.1774292,
3.267500162,280.8269653,
3.269166708,282.7489014,
3.270833254,280.3447876,
3.272500038,281.864624,
3.274166584,282.0140076,
3.275833368,283.1190796,
3.277500153,283.4194946,
3.279166698,283.9727173,
3.280833483,282.7832336,
3.282500029,283.178894,
3.284166813,282.9019165,
3.285833597,282.2460938,
3.287499905,282.3797302,
3.289166689,282.5032654,
3.290833235,283.5529785,
3.292500019,282.8912354,
3.294166803,282.9148254,
3.295833349,282.461853,
3.297500134,283.3294373,
3.299166679,282.5060425,
3.300833464,282.7870483,
3.302500248,281.666626,
3.304166555,281.0174866,
3.30583334,283.561676,
3.307499886,282.6530457,
3.30916667,281.6376953,
3.310833454,282.979187,
3.3125,282.2672729,
3.314166784,281.4297485,
3.31583333,284.1334839,
3.317500114,282.9981689,
3.319166899,281.5005493,
3.320833445,282.6907349,
3.32249999,280.3398743,
3.324166536,282.6115417,
3.325833321,282.5533752,
3.327500105,283.0822144,
3.329166651,281.7197571,
3.330833435,281.8855591,
3.332499981,282.7724609,
3.334166765,283.3437805,
3.335833549,283.0342102,
3.337500095,283.7840271,
3.33916688,282.3680725,
3.340833187,283.4720459,
3.342499971,283.1026611,
3.344166756,282.2956848,
3.345833302,282.5607605,
3.347500086,283.7389526,
3.349166632,283.3411255,
3.350833416,282.6416016,
3.3525002,283.146759,
3.354166746,283.4798279,
3.35583353,283.4378357,
3.357499838,283.0505371,
3.359166622,283.8766785,
3.360833406,284.6139221,
3.362499952,284.1143188,
3.364166737,283.8951416,
3.365833282,283.5820007,
3.367500067,280.4263306,
3.369166851,280.9595337,
3.370833397,282.0775452,
3.372500181,282.700592,
3.374166727,283.2605896,
3.375833273,281.8022766,
3.377500057,283.4345093,
3.379166603,283.8197021,
3.380833387,282.3379822,
3.382499933,282.859375,
3.384166718,282.1426086,
3.385833502,281.8641357,
3.387500048,283.0111694,
3.389166832,282.7639771,
3.390833378,283.1829529,
3.392500162,283.0488586,
3.394166708,283.3513489,
3.395833254,283.7445984,
3.397500038,281.0383606,
3.399166584,282.0128784,
3.400833368,283.4151917,
3.402500153,282.6994324,
3.404166698,283.2286987,
3.405833483,284.0382385,
3.407500029,283.0450439,
3.409166813,281.7048645,
3.410833597,281.8536987,
3.412499905,282.3368225,
3.414166689,281.9215393,
3.415833235,284.3111877,
3.417500019,283.9898987,
3.419166803,281.2111511,
3.420833349,284.7150269,
3.422500134,284.4387207,
3.424166679,284.1286621,
3.425833464,282.65448,
3.427500248,282.5485229,
3.429166555,283.1069336,
3.43083334,282.9060669,
3.432499886,283.3536987,
3.43416667,283.6246338,
3.435833454,283.8058167,
3.4375,281.6672058,
3.439166784,281.5586243,
3.44083333,282.1306458,
3.442500114,283.0313721,
3.444166899,282.4764099,
3.445833445,284.1350403,
3.44749999,283.1158447,
3.449166536,282.7758484,
3.450833321,281.4403687,
3.452500105,282.9339294,
3.454166651,282.0080872,
3.455833435,282.016449,
3.457499981,283.6875305,
3.459166765,283.5027771,
3.460833549,284.2160645,
3.462500095,282.9555359,
3.46416688,281.584137,
3.465833187,281.918335,
3.467499971,284.0911255,
3.469166756,283.148468,
3.470833302,282.7538452,
3.472500086,283.7218628,
3.474166632,282.0086975,
3.475833416,282.9256287,
3.4775002,284.0737305,
3.479166746,283.6170349,
3.48083353,281.3815308,
3.482499838,283.9580383,
3.484166622,283.1464844,
3.485833406,284.065979,
3.487499952,283.1686096,
3.489166737,283.6283875,
3.490833282,284.5140381,
3.492500067,281.6021729,
3.494166851,282.6720886,
3.495833397,283.2439575,
3.497500181,283.7466431,
3.499166727,284.0711365,
3.500833273,283.5385437,
3.502500057,283.0093689,
3.504166603,282.8743896,
3.505833387,284.5369263,
3.507499933,282.6432495,
3.509166718,281.9444885,
3.510833502,283.8930664,
3.512500048,283.7982788,
3.514166832,283.5721436,
3.515833378,284.5834961,
3.517500162,282.4934387,
3.519166708,283.4351807,
3.520833254,282.7196045,
3.522500038,283.9165955,
3.524166584,283.0678406,
3.525833368,283.4214783,
3.527500153,283.4513855,
3.529166698,282.6881104,
3.530833483,283.1923218,
3.532500029,283.9888306,
3.534166813,281.2120056,
3.535833597,283.0831604,
3.537499905,284.621582,
3.539166689,283.3483276,
3.540833235,282.3938904,
3.542500019,283.2972107,
3.544166803,283.6692505,
3.545833349,284.1738281,
3.547500134,284.4778442,
3.549166679,283.6307678,
3.550833464,285.4817505,
3.552500248,283.6328735,
3.554166555,281.9767151,
3.55583334,284.3460083,
3.557499886,283.2700195,
3.55916667,282.7842102,
3.560833454,283.4280396,
3.5625,284.3409424,
3.564166784,285.0600281,
3.56583333,283.1575317,
3.567500114,282.3251953,
3.569166899,283.0336609,
3.570833445,283.6612854,
3.57249999,283.4997559,
3.574166536,284.298584,
3.575833321,282.846283,
3.577500105,284.1419067,
3.579166651,283.2127075,
3.580833435,284.7933044,
3.582499981,283.3055115,
3.584166765,283.2602539,
3.585833549,284.6726074,
3.587500095,284.3836365,
3.58916688,283.6224365,
3.590833187,282.5585327,

