1,,
Time (min),Intensity (a.u.),
0.0008333333535,24.54465294,
0.002500000177,24.64153862,
0.004166666884,24.28705597,
0.005833333358,24.66632462,
0.007500000298,24.82284164,
0.009166667238,24.21383095,
0.01083333418,24.58857536,
0.01250000019,24.27391052,
0.01416666713,24.39487267,
0.01583333313,24.26902962,
0.01750000194,24.09090805,
0.01916666701,24.6142807,
0.02083333395,24.49363327,
0.02250000089,24.41488647,
0.02416666783,24.72436714,
0.02583333477,24.25616264,
0.02749999985,24.68368912,
0.02916666679,24.9115963,
0.03083333373,24.50146103,
0.03250000253,24.31403351,
0.03416666761,24.64985657,
0.03583333641,24.55690193,
0.03750000149,24.26108932,
0.03916667029,24.44100571,
0.04083333537,24.85114098,
0.04250000045,24.49600029,
0.04416666925,24.49482155,
0.04583333433,24.57047462,
0.04750000313,24.47130585,
0.04916666821,24.20307732,
0.05083333328,24.50497627,
0.05250000209,23.96892929,
0.05416666716,24.28774834,
0.05583333597,24.6881218,
0.05750000104,24.5074482,
0.05916666612,24.70862961,
0.06083333492,24.37263107,
0.0625,24.66139984,
0.06416667253,24.42367363,
0.0658333376,24.61006355,
0.06750000268,24.25406647,
0.06916666776,24.33133316,
0.07083333284,24.60169029,
0.07249999791,24.14287567,
0.07416667044,23.79177666,
0.07583333552,24.2793026,
0.0775000006,24.3122139,
0.07916666567,24.19077492,
0.08083333075,24.25555611,
0.08250000328,24.40123177,
0.08416666836,24.38319778,
0.08583333343,24.23647118,
0.08749999851,24.13141251,
0.08916666359,24.16485977,
0.09083333611,24.09479523,
0.09250000119,24.07341957,
0.09416666627,24.75051308,
0.09583333135,24.6147213,
0.09749999642,24.90828896,
0.09916666895,24.37309456,
0.100833334,24.49804306,
0.1024999991,24.44551468,
0.1041666642,24.63754082,
0.1058333293,24.80156898,
0.1075000018,24.32155037,
0.1091666669,24.59594917,
0.1108333319,24.44252586,
0.112499997,24.17819595,
0.1141666621,24.59197235,
0.1158333346,24.58835602,
0.1174999997,24.60330772,
0.1191666648,24.87973785,
0.1208333299,24.53329659,
0.1224999949,24.31546211,
0.1241666749,24.46381569,
0.1258333325,24.19492912,
0.1274999976,24.42963219,
0.1291666627,25.09970474,
0.1308333278,24.80878448,
0.1325000077,24.53197861,
0.1341666728,24.65000153,
0.1358333379,24.38230705,
0.137500003,24.15649223,
0.1391666681,24.28313637,
0.1408333331,24.53292274,
0.1424999982,24.22547722,
0.1441666782,24.66832542,
0.1458333284,24.51158142,
0.1475000083,24.37798691,
0.1491666585,24.49434853,
0.1508333385,24.4165287,
0.1525000036,24.69327164,
0.1541666687,24.7636013,
0.1558333337,24.59943962,
0.1574999988,24.65075111,
0.1591666639,24.80344009,
0.1608333439,24.51168442,
0.162499994,24.75338745,
0.164166674,24.41556168,
0.1658333242,24.03923416,
0.1675000042,24.78841782,
0.1691666692,24.04160118,
0.1708333343,24.78951263,
0.1724999994,24.21770668,
0.1741666645,24.33960724,
0.1758333296,24.58713531,
0.1775000095,24.14824295,
0.1791666597,24.43646812,
0.1808333397,24.61940956,
0.1824999899,24.47752571,
0.1841666698,24.33111763,
0.1858333498,24.00124741,
0.1875,24.98087311,
0.18916668,23.80368805,
0.1908333302,24.58214569,
0.1925000101,24.58825874,
0.1941666752,24.52268982,
0.1958333403,24.15040779,
0.1975000054,25.10362625,
0.1991666704,24.23349762,
0.2008333355,24.60112381,
0.2025000155,24.47098732,
0.2041666657,24.26087761,
0.2058333457,24.55824089,
0.2074999958,24.3947525,
0.2091666758,24.15592575,
0.2108333409,24.6494236,
0.212500006,24.48394012,
0.214166671,24.85841942,
0.2158333361,24.65056801,
0.2175000012,24.37646675,
0.2191666812,24.38474846,
0.2208333313,24.15685844,
0.2225000113,24.34878731,
0.2241666615,24.45807838,
0.2258333415,24.32786179,
0.2275000066,24.17481041,
0.2291666716,24.71156693,
0.2308333367,24.07872963,
0.2325000018,24.57646751,
0.2341666669,24.59165573,
0.2358333468,24.27069092,
0.237499997,24.71840286,
0.239166677,24.39610672,
0.2408333272,24.56138229,
0.2425000072,24.45623016,
0.2441666722,24.75602341,
0.2458333373,24.24720573,
0.2475000024,24.58358765,
0.2491666675,24.37096596,
0.2508333325,24.63331223,
0.2524999976,24.29631615,
0.2541666627,23.80303764,
0.2558333278,24.29125595,
0.2574999928,24.27872086,
0.2591666579,24.78780365,
0.2608333528,24.20992661,
0.2624999881,24.48373413,
0.264166683,24.29942894,
0.2658333182,24.3333416,
0.2675000131,24.34693527,
0.2691666484,24.46257973,
0.2708333433,24.63634872,
0.2725000083,24.36116219,
0.2741666734,24.26574516,
0.2758333385,24.59362411,
0.2775000036,24.01534653,
0.2791666687,24.24998665,
0.2808333337,24.12871742,
0.2824999988,24.28446007,
0.2841666937,25.21601677,
0.285833329,24.20067596,
0.287499994,24.06098747,
0.2891666591,24.32813835,
0.290833354,24.57112312,
0.2925000191,24.82312202,
0.2941666543,24.68194008,
0.2958333194,24.36032486,
0.2975000143,24.48709869,
0.2991666794,24.47982597,
0.3008333445,24.68312073,
0.3024999797,24.56930542,
0.3041666746,24.06874657,
0.3058333397,24.53469658,
0.3075000048,24.50650024,
0.3091666996,24.05543518,
0.3108333349,24.54564285,
0.3125,24.95448875,
0.3141666651,24.56121445,
0.31583336,24.36035919,
0.317500025,24.10015297,
0.3191666603,24.55333138,
0.3208333254,24.39669991,
0.3225000203,24.33127975,
0.3241666853,24.92014885,
0.3258333504,24.36206055,
0.3274999857,24.13152695,
0.3291666806,24.2405529,
0.3308333457,24.48805428,
0.3325000107,24.3364048,
0.3341666758,24.15398026,
0.3358333409,24.62306976,
0.337500006,24.68800926,
0.339166671,24.52443314,
0.3408333361,24.5416317,
0.342500031,24.04206085,
0.3441666663,24.11205292,
0.3458333313,24.46705627,
0.3474999964,24.04112816,
0.3491666913,24.20864487,
0.3508333564,24.47802353,
0.3524999917,24.25258636,
0.3541666567,24.56622124,
0.3558333516,24.59413147,
0.3575000167,23.95213127,
0.3591666818,24.08015251,
0.360833317,24.32214546,
0.3625000119,24.60884857,
0.364166677,24.16115379,
0.3658333421,24.36925697,
0.3675000072,24.03259468,
0.3691666722,24.74710846,
0.3708333373,24.19839478,
0.3725000024,24.51261902,
0.3741666675,24.6322155,
0.3758333623,24.63799477,
0.3774999976,24.46992683,
0.3791666627,24.4999485,
0.3808333278,24.41912651,
0.3825000226,23.82086372,
0.3841666877,23.85253906,
0.385833323,24.56365585,
0.3874999881,24.35176468,
0.389166683,24.39725876,
0.390833348,24.64814568,
0.3925000131,24.14955711,
0.3941666484,24.8780365,
0.3958333433,24.7430954,
0.3975000083,24.30586815,
0.3991666734,24.56729507,
0.4008333385,24.19185066,
0.4025000036,24.1421032,
0.4041666687,24.5660038,
0.4058333337,24.56456375,
0.4074999988,24.25516891,
0.4091666937,24.31048584,
0.410833329,24.48027992,
0.412499994,24.37256622,
0.4141666591,24.4172554,
0.415833354,24.88088989,
0.4175000191,24.68591309,
0.4191666543,24.21125031,
0.4208333194,24.40343094,
0.4225000143,23.45503616,
0.4241666794,24.27309608,
0.4258333445,24.39574432,
0.4274999797,24.46765327,
0.4291666746,24.54736137,
0.4308333397,24.43337631,
0.4325000048,24.43893051,
0.4341666996,24.49632645,
0.4358333349,24.34251595,
0.4375,24.4122963,
0.4391666651,24.21247292,
0.44083336,24.31175041,
0.442500025,24.44753647,
0.4441666603,23.96133804,
0.4458333254,24.58836555,
0.4475000203,24.37765312,
0.4491666853,24.34027863,
0.4508333504,24.83587456,
0.4524999857,24.23665619,
0.4541666806,24.56827164,
0.4558333457,24.75646782,
0.4575000107,24.04589844,
0.4591666758,24.00215149,
0.4608333409,24.28086662,
0.462500006,24.5311203,
0.464166671,24.69476128,
0.4658333361,25.32521057,
0.467500031,24.75395966,
0.4691666663,24.17496872,
0.4708333313,24.38632584,
0.4724999964,24.80884171,
0.4741666913,24.41633797,
0.4758333564,24.81479073,
0.4774999917,24.28600311,
0.4791666567,24.68488693,
0.4808333516,24.73174095,
0.4825000167,24.81427956,
0.4841666818,24.36978722,
0.485833317,24.53348351,
0.4875000119,24.20738602,
0.489166677,24.4625473,
0.4908333421,24.54133797,
0.4925000072,24.44221687,
0.4941666722,24.56386757,
0.4958333373,24.25373077,
0.4975000024,24.28019142,
0.4991666675,24.16242409,
0.5008333325,24.66067696,
0.5024999976,24.39634705,
0.5041666627,24.82681274,
0.5058333278,24.69525528,
0.5074999928,24.31747055,
0.5091666579,24.60717201,
0.510833323,24.76728821,
0.5124999881,24.18537903,
0.5141666532,24.08706284,
0.5158333182,24.69660378,
0.5175000429,25.02135277,
0.5191666484,24.3836689,
0.5208333135,23.84689522,
0.5224999785,24.40728188,
0.5241667032,24.28354836,
0.5258333683,24.35900497,
0.5274999738,24.55333328,
0.5291666389,24.81321144,
0.5308333635,24.42171669,
0.5325000286,23.9008522,
0.5341666341,24.26771355,
0.5358333588,24.34626389,
0.5375000238,24.242239,
0.5391666889,24.09955406,
0.540833354,24.08865547,
0.5424999595,24.13600349,
0.5441666842,24.04368973,
0.5458333492,24.37494278,
0.5475000143,24.19952011,
0.5491666794,24.15514565,
0.5508333445,24.1684761,
0.5525000095,24.22894096,
0.5541666746,24.52353668,
0.5558333993,24.62092972,
0.5575000048,24.10271263,
0.5591666698,24.38108826,
0.5608333349,24.47287178,
0.5625,24.53584099,
0.5641667247,24.62852097,
0.5658333302,24.49291992,
0.5674999952,24.23420334,
0.5691667199,24.7076664,
0.5708333254,23.71774101,
0.5725000501,24.58421135,
0.5741666555,24.1199398,
0.5758333206,24.61955261,
0.5775000453,24.50054359,
0.5791666508,24.46915436,
0.5808333755,24.77503395,
0.5825000405,24.35524178,
0.584166646,24.4213562,
0.5858333707,24.43626976,
0.5874999762,23.89764977,
0.5891667008,24.14414787,
0.5908333659,24.19316673,
0.5924999714,24.68453979,
0.5941666961,24.46854973,
0.5958333611,24.24608421,
0.5975000262,24.24695206,
0.5991666913,24.11423683,
0.6008332968,24.84205246,
0.6025000215,24.36323929,
0.6041666865,24.15625,
0.6058333516,24.51967621,
0.6075000167,24.54673767,
0.6091666818,24.06254387,
0.6108333468,23.9027977,
0.6125000119,24.58060837,
0.614166677,24.28432465,
0.6158333421,24.63339996,
0.6175000072,24.30772018,
0.6191666722,24.35695839,
0.6208333373,24.31697845,
0.622500062,24.24816132,
0.6241666675,24.63204765,
0.6258333325,24.68677521,
0.6274999976,24.40901947,
0.6291666627,24.21351814,
0.6308333874,24.41550827,
0.6324999928,24.68467903,
0.6341666579,24.61871529,
0.6358333826,24.70992661,
0.6374999881,24.53627968,
0.6391667128,24.06289101,
0.6408333182,24.75152397,
0.6424999833,24.50803757,
0.644166708,24.14573288,
0.6458333135,24.64681816,
0.6475000381,24.76041794,
0.6491667032,24.31232452,
0.6508333087,24.36585999,
0.6525000334,23.94392014,
0.6541666389,24.64207649,
0.6558333635,24.49283981,
0.6575000286,24.30601692,
0.6591666341,24.37035751,
0.6608333588,24.56119537,
0.6625000238,24.16597557,
0.6641666889,23.95397949,
0.665833354,24.56053162,
0.6674999595,24.62148666,
0.6691666842,24.18219948,
0.6708333492,24.62700462,
0.6725000143,24.90490723,
0.6741666794,24.16949081,
0.6758333445,24.19433212,
0.6775000095,24.66159248,
0.6791666746,24.34102631,
0.6808333993,24.62174606,
0.6825000048,24.81673431,
0.6841666698,24.11116028,
0.6858333349,24.4757328,
0.6875,24.42256546,
0.6891667247,24.4339962,
0.6908333302,24.41036415,
0.6924999952,24.10113335,
0.6941667199,24.46178627,
0.6958333254,24.17692184,
0.6975000501,24.03211594,
0.6991666555,24.2065239,
0.7008333206,24.21865273,
0.7025000453,24.35875893,
0.7041666508,24.67149544,
0.7058333755,24.04603004,
0.7075000405,24.26828766,
0.709166646,24.44976044,
0.7108333707,24.3817749,
0.7124999762,24.10350037,
0.7141667008,24.38965797,
0.7158333659,24.3956356,
0.7174999714,24.69173622,
0.7191666961,24.52062416,
0.7208333611,24.37207603,
0.7225000262,24.53998756,
0.7241666913,24.68157578,
0.7258332968,24.2697525,
0.7275000215,24.13185692,
0.7291666865,24.22522545,
0.7308333516,24.7662468,
0.7325000167,24.97710419,
0.7341666818,24.11585999,
0.7358333468,24.28373528,
0.7375000119,24.35997772,
0.739166677,24.3773365,
0.7408333421,24.46356583,
0.7425000072,24.61459732,
0.7441666722,24.62760735,
0.7458333373,24.06463242,
0.747500062,24.06876755,
0.7491666675,24.30243111,
0.7508333325,24.32660103,
0.7524999976,24.29297256,
0.7541666627,24.76002502,
0.7558333874,24.28726196,
0.7574999928,24.17369843,
0.7591666579,24.4828434,
0.7608333826,24.21655846,
0.7624999881,24.61458778,
0.7641667128,24.35434532,
0.7658333182,24.11359406,
0.7674999833,24.62010956,
0.769166708,24.48442268,
0.7708333135,24.62952232,
0.7725000381,24.10080528,
0.7741667032,24.63066101,
0.7758333087,24.33294106,
0.7775000334,24.36758995,
0.7791666389,24.47715759,
0.7808333635,24.4407692,
0.7825000286,24.12838554,
0.7841666341,24.21770287,
0.7858333588,24.45434189,
0.7875000238,24.74868011,
0.7891666889,24.41223145,
0.790833354,24.15847969,
0.7924999595,24.21696854,
0.7941666842,23.93120575,
0.7958333492,24.87688828,
0.7975000143,24.4242878,
0.7991666794,24.45842934,
0.8008333445,24.3903904,
0.8025000095,24.3669281,
0.8041666746,24.58775902,
0.8058333993,24.26530457,
0.8075000048,24.9522438,
0.8091666698,24.56008911,
0.8108333349,24.55665016,
0.8125,24.38211823,
0.8141667247,23.77472878,
0.8158333302,24.46874428,
0.8174999952,24.36548233,
0.8191667199,24.30172157,
0.8208333254,24.67001343,
0.8225000501,24.39184952,
0.8241666555,24.57700539,
0.8258333206,24.62777901,
0.8275000453,24.97834969,
0.8291666508,24.65069199,
0.8308333755,24.34542465,
0.8325000405,23.95134163,
0.834166646,24.49112129,
0.8358333707,24.3818512,
0.8374999762,24.23345566,
0.8391667008,24.17275429,
0.8408333659,24.31939697,
0.8424999714,24.28923225,
0.8441666961,24.42724419,
0.8458333611,24.18800354,
0.8475000262,24.56272316,
0.8491666913,24.22441673,
0.8508332968,24.17853546,
0.8525000215,24.62588501,
0.8541666865,24.48116112,
0.8558333516,24.43718719,
0.8575000167,24.2679863,
0.8591666818,24.55064011,
0.8608333468,24.05522728,
0.8625000119,24.27647781,
0.864166677,24.26718521,
0.8658333421,24.79586983,
0.8675000072,24.16714478,
0.8691666722,24.29111099,
0.8708333373,24.97220612,
0.872500062,24.31171799,
0.8741666675,24.69778633,
0.8758333325,24.91234779,
0.8774999976,24.51576042,
0.8791666627,24.44993782,
0.8808333874,24.33870125,
0.8824999928,24.04273224,
0.8841666579,24.169384,
0.8858333826,24.27423668,
0.8874999881,24.33645439,
0.8891667128,24.23755264,
0.8908333182,24.56851387,
0.8924999833,24.1119957,
0.894166708,24.26171494,
0.8958333135,24.24707031,
0.8975000381,23.98067093,
0.8991667032,24.88422775,
0.9008333087,24.26276016,
0.9025000334,24.44986343,
0.9041666389,24.73393631,
0.9058333635,24.67193794,
0.9075000286,24.4306736,
0.9091666341,24.64107132,
0.9108333588,24.08798981,
0.9125000238,24.42859459,
0.9141666889,24.04846764,
0.915833354,24.50564575,
0.9174999595,24.32414627,
0.9191666842,24.42406845,
0.9208333492,24.35277939,
0.9225000143,24.48986816,
0.9241666794,24.41871071,
0.9258333445,24.41674423,
0.9275000095,24.20688629,
0.9291666746,23.99946785,
0.9308333993,24.31482315,
0.9325000048,24.00756454,
0.9341666698,24.34535408,
0.9358333349,24.3257885,
0.9375,24.41642189,
0.9391667247,24.29958916,
0.9408333302,24.2876873,
0.9424999952,24.43273544,
0.9441667199,24.47270012,
0.9458333254,24.4715004,
0.9475000501,24.31376648,
0.9491666555,24.3061161,
0.9508333206,24.42988014,
0.9525000453,24.33684349,
0.9541666508,24.61186218,
0.9558333755,24.15581703,
0.9575000405,24.55200195,
0.959166646,24.52724838,
0.9608333707,24.49627686,
0.9624999762,24.62785149,
0.9641667008,24.77355957,
0.9658333659,24.21218491,
0.9674999714,24.54906654,
0.9691666961,24.49825287,
0.9708333611,23.91279602,
0.9725000262,24.53726387,
0.9741666913,24.73766327,
0.9758332968,23.92585754,
0.9775000215,24.80282211,
0.9791666865,24.86822701,
0.9808333516,24.45391846,
0.9825000167,24.51065254,
0.9841666818,24.09652901,
0.9858333468,24.40094948,
0.9875000119,24.38639832,
0.989166677,24.62117767,
0.9908333421,24.7009182,
0.9925000072,24.39053726,
0.9941666722,24.16425514,
0.9958333373,24.41535568,
0.997500062,24.32375717,
0.9991666675,24.41946602,
1.000833273,24.60704994,
1.002500057,24.55776405,
1.004166722,25.23556328,
1.005833387,24.4308548,
1.007500052,24.04969788,
1.009166598,24.57238197,
1.010833383,24.23108673,
1.012500048,24.2381649,
1.014166713,24.64107513,
1.015833378,24.56566048,
1.017500043,24.49826813,
1.019166708,24.45599556,
1.020833373,24.26890564,
1.022500038,24.25900269,
1.024166703,24.31789398,
1.025833368,24.3008728,
1.027500033,24.43746567,
1.029166698,24.93387794,
1.030833364,24.71025276,
1.032500029,24.02737808,
1.034166694,24.5057373,
1.035833359,24.46208382,
1.037500024,24.31681252,
1.039166689,24.3963089,
1.040833354,24.34479523,
1.042500019,24.33410072,
1.044166684,23.98382759,
1.045833349,24.84325027,
1.047500014,23.97437859,
1.049166679,24.12806511,
1.050833344,23.99807358,
1.05250001,24.79338837,
1.054166675,24.90786552,
1.05583334,24.39679909,
1.057500005,24.39943504,
1.05916667,24.40595055,
1.060833335,24.18335533,
1.0625,24.23288536,
1.064166665,24.3028965,
1.06583333,24.45834541,
1.067499995,24.49988556,
1.06916666,24.44984818,
1.070833325,24.30737495,
1.07249999,24.16381645,
1.074166775,24.98418236,
1.07583344,24.06744003,
1.077499986,24.28600311,
1.079166651,24.61836624,
1.080833316,24.30478477,
1.0825001,24.0740509,
1.084166765,24.72920418,
1.085833311,24.15742683,
1.087499976,24.71994209,
1.089166641,24.10683823,
1.090833426,24.40236282,
1.092500091,24.24942398,
1.094166636,24.45389748,
1.095833302,24.23021698,
1.097499967,24.44439125,
1.099166751,24.76388359,
1.100833416,24.40194321,
1.102500081,23.96857834,
1.104166627,25.00490952,
1.105833292,24.27025223,
1.107500076,24.42688179,
1.109166741,24.498806,
1.110833406,23.92664337,
1.112499952,24.64389992,
1.114166617,24.17168236,
1.115833402,24.47281075,
1.117500067,24.09115028,
1.119166732,24.67437363,
1.120833278,25.71791077,
1.122499943,32.24885559,
1.124166727,41.40590286,
1.125833392,50.3588562,
1.127500057,76.56373596,
1.129166722,85.50642395,
1.130833268,80.43748474,
1.132500052,105.6829834,
1.134166718,101.6381836,
1.135833383,113.5565262,
1.137500048,130.3182526,
1.139166594,138.8468781,
1.140833378,145.7963867,
1.142500043,153.5995941,
1.144166708,160.9926605,
1.145833373,166.5112152,
1.147499919,173.0652466,
1.149166703,176.7066498,
1.150833368,181.5345306,
1.152500033,185.3515778,
1.154166698,189.9267273,
1.155833364,192.6243896,
1.157500029,196.359314,
1.159166694,199.0995026,
1.160833359,201.3950958,
1.162500024,204.5647278,
1.164166689,206.6486359,
1.165833354,209.2559052,
1.167500019,211.3660583,
1.169166684,213.8037567,
1.170833349,215.940567,
1.172500014,217.8680573,
1.174166799,221.239212,
1.175833344,221.1780243,
1.17750001,223.6392365,
1.179166675,224.0049591,
1.18083334,223.5438232,
1.182500124,227.1893311,
1.18416667,229.4696503,
1.185833335,230.8759613,
1.1875,231.0101471,
1.189166665,231.7515411,
1.190833449,231.8333893,
1.192499995,234.4702148,
1.19416666,235.9514771,
1.195833325,237.4250183,
1.19749999,237.1226807,
1.199166775,239.4793854,
1.20083344,240.3289032,
1.202499986,239.8724365,
1.204166651,240.1712189,
1.205833316,241.5319366,
1.2075001,241.7649536,
1.209166765,243.031601,
1.210833311,244.3043213,
1.212499976,244.1929321,
1.214166641,244.9763641,
1.215833426,246.1813354,
1.217500091,247.7121582,
1.219166636,247.0565796,
1.220833302,247.1759033,
1.222499967,245.5734863,
1.224166751,245.8700256,
1.225833416,248.1321259,
1.227500081,250.9033356,
1.229166627,249.848877,
1.230833292,250.8134308,
1.232500076,251.4978027,
1.234166741,252.6976471,
1.235833406,250.6673584,
1.237499952,253.1726379,
1.239166617,252.3339691,
1.240833402,252.4133301,
1.242500067,254.9663849,
1.244166732,255.1055298,
1.245833278,253.5227203,
1.247499943,254.6689148,
1.249166727,253.8361511,
1.250833392,255.1034393,
1.252500057,253.6539154,
1.254166722,253.9635925,
1.255833268,258.2215271,
1.257500052,255.3692169,
1.259166718,257.8354492,
1.260833383,256.9220276,
1.262500048,256.1055298,
1.264166594,256.8115845,
1.265833378,257.2486572,
1.267500043,256.8103638,
1.269166708,257.5405884,
1.270833373,257.5790405,
1.272499919,258.4906311,
1.274166703,258.2415466,
1.275833368,259.0957336,
1.277500033,258.9050903,
1.279166698,260.0731506,
1.280833364,258.8453979,
1.282500029,259.1508179,
1.284166694,259.1189575,
1.285833359,258.7088623,
1.287500024,260.5139465,
1.289166689,261.5287781,
1.290833354,260.2599792,
1.292500019,260.8556824,
1.294166684,260.9938354,
1.295833349,262.33078,
1.297500014,261.2444763,
1.299166799,260.6685486,
1.300833344,260.8916016,
1.30250001,262.2138672,
1.304166675,260.1762085,
1.30583334,261.9972839,
1.307500124,261.8557434,
1.30916667,262.2554016,
1.310833335,261.4570618,
1.3125,262.6212463,
1.314166665,263.8818054,
1.315833449,265.3307495,
1.317499995,263.1697998,
1.31916666,263.4093018,
1.320833325,263.9146118,
1.32249999,264.680481,
1.324166775,263.4583435,
1.32583344,262.6051636,
1.327499986,263.224884,
1.329166651,263.7687988,
1.330833316,263.4364014,
1.3325001,263.5864258,
1.334166765,263.1802063,
1.335833311,264.230011,
1.337499976,265.1424561,
1.339166641,264.2112732,
1.340833426,263.6480713,
1.342500091,264.3709412,
1.344166636,264.9379272,
1.345833302,266.4148254,
1.347499967,265.8113403,
1.349166751,263.6114502,
1.350833416,264.4412537,
1.352500081,265.8992004,
1.354166627,263.7477417,
1.355833292,264.8727112,
1.357500076,264.5041504,
1.359166741,263.6378479,
1.360833406,265.9183044,
1.362499952,266.9467468,
1.364166617,267.8084106,
1.365833402,266.229187,
1.367500067,266.7316284,
1.369166732,266.7869568,
1.370833278,265.4694519,
1.372499943,266.3447266,
1.374166727,268.8098145,
1.375833392,268.967865,
1.377500057,266.577301,
1.379166722,267.9103088,
1.380833268,263.5906677,
1.382500052,266.984314,
1.384166718,266.1654968,
1.385833383,266.5264587,
1.387500048,266.4534302,
1.389166594,267.6078491,
1.390833378,266.3478088,
1.392500043,264.6532593,
1.394166708,265.773468,
1.395833373,265.6836243,
1.397499919,266.2598267,
1.399166703,267.2203064,
1.400833368,267.6857605,
1.402500033,266.3300171,
1.404166698,268.1939087,
1.405833364,266.5437317,
1.407500029,267.0682983,
1.409166694,269.5138855,
1.410833359,268.2847595,
1.412500024,265.4486389,
1.414166689,268.1434937,
1.415833354,268.5700989,
1.417500019,268.2794495,
1.419166684,266.052887,
1.420833349,269.1624756,
1.422500014,267.3789673,
1.424166799,267.7157593,
1.425833344,268.3112488,
1.42750001,268.2320557,
1.429166675,268.5616455,
1.43083334,268.2474976,
1.432500124,267.228241,
1.43416667,265.4670105,
1.435833335,266.0798645,
1.4375,267.5421448,
1.439166665,269.3294678,
1.440833449,268.2720337,
1.442499995,268.3943481,
1.44416666,267.5496521,
1.445833325,268.6099548,
1.44749999,267.6152649,
1.449166775,266.8721008,
1.45083344,266.5978699,
1.452499986,266.5090942,
1.454166651,266.9223938,
1.455833316,265.7713318,
1.4575001,268.0364075,
1.459166765,268.95578,
1.460833311,268.5982056,
1.462499976,268.0964966,
1.464166641,266.9016113,
1.465833426,268.5716858,
1.467500091,268.3095093,
1.469166636,267.109436,
1.470833302,268.0053711,
1.472499967,269.9160156,
1.474166751,268.9115601,
1.475833416,268.9815063,
1.477500081,267.5140381,
1.479166627,268.1951599,
1.480833292,269.7710571,
1.482500076,268.0478821,
1.484166741,267.3487854,
1.485833406,269.9716187,
1.487499952,267.6622009,
1.489166617,267.9259033,
1.490833402,268.0715637,
1.492500067,268.2483521,
1.494166732,267.784668,
1.495833278,270.4195862,
1.497499943,268.9636841,
1.499166727,269.2227783,
1.500833392,268.9861145,
1.502500057,268.6881409,
1.504166722,270.2111206,
1.505833268,269.4912415,
1.507500052,268.0762939,
1.509166718,268.1993713,
1.510833383,270.2686462,
1.512500048,268.7313843,
1.514166594,269.034668,
1.515833378,269.0848694,
1.517500043,268.4129028,
1.519166708,268.4703064,
1.520833373,269.7971802,
1.522499919,269.3473511,
1.524166703,268.2755127,
1.525833368,268.2207336,
1.527500033,270.342804,
1.529166698,267.9516296,
1.530833364,270.1098328,
1.532500029,268.5407104,
1.534166694,267.1504517,
1.535833359,269.8147583,
1.537500024,267.7983093,
1.539166689,270.365387,
1.540833354,268.9306335,
1.542500019,267.5535889,
1.544166684,268.3752747,
1.545833349,267.153656,
1.547500014,271.1156921,
1.549166799,269.7338257,
1.550833344,268.5076599,
1.55250001,267.4865417,
1.554166675,269.0867615,
1.55583334,269.4859009,
1.557500124,270.0248718,
1.55916667,270.8519592,
1.560833335,269.4492188,
1.5625,269.6593933,
1.564166665,269.9231262,
1.565833449,270.8340759,
1.567499995,270.1161194,
1.56916666,269.7962341,
1.570833325,268.4627075,
1.57249999,268.2330933,
1.574166775,268.9738159,
1.57583344,270.4317322,
1.577499986,270.2651672,
1.579166651,269.5588989,
1.580833316,270.3903809,
1.5825001,267.6068726,
1.584166765,270.2802429,
1.585833311,269.5106201,
1.587499976,269.438446,
1.589166641,269.6456299,
1.590833426,269.0026245,
1.592500091,269.8363037,
1.594166636,269.6695251,
1.595833302,269.7304993,
1.597499967,270.5398254,
1.599166751,269.291626,
1.600833416,268.555603,
1.602500081,269.5415344,
1.604166627,268.7694092,
1.605833292,268.7437439,
1.607500076,269.9507141,
1.609166741,270.3825073,
1.610833406,270.0887756,
1.612499952,269.5162659,
1.614166617,268.1021729,
1.615833402,269.7806091,
1.617500067,270.6428528,
1.619166732,268.6821594,
1.620833278,270.0253601,
1.622499943,270.4254456,
1.624166727,270.9389954,
1.625833392,269.750946,
1.627500057,269.3959351,
1.629166722,268.2538147,
1.630833268,270.9761353,
1.632500052,271.250885,
1.634166718,269.072937,
1.635833383,269.7355042,
1.637500048,268.3424988,
1.639166594,269.8025513,
1.640833378,269.7032776,
1.642500043,269.4440002,
1.644166708,268.3756104,
1.645833373,269.8954468,
1.647499919,270.478241,
1.649166703,268.6319885,
1.650833368,270.1626587,
1.652500033,269.2996521,
1.654166698,269.1004944,
1.655833364,269.9627075,
1.657500029,269.6930237,
1.659166694,268.955658,
1.660833359,270.9061584,
1.662500024,268.6322327,
1.664166689,269.5262756,
1.665833354,268.9266968,
1.667500019,270.4919739,
1.669166684,269.39328,
1.670833349,269.5881348,
1.672500014,270.6824036,
1.674166799,271.101532,
1.675833344,268.2620239,
1.67750001,268.8321228,
1.679166675,269.0384521,
1.68083334,268.4477234,
1.682500124,268.4433899,
1.68416667,269.3839417,
1.685833335,269.970459,
1.6875,268.6818848,
1.689166665,269.167572,
1.690833449,269.4056702,
1.692499995,268.7025452,
1.69416666,270.7788696,
1.695833325,269.6795044,
1.69749999,270.1107178,
1.699166775,270.6293335,
1.70083344,272.1176147,
1.702499986,268.5679016,
1.704166651,270.552002,
1.705833316,268.4718323,
1.7075001,270.1407166,
1.709166765,270.895752,
1.710833311,269.0870361,
1.712499976,270.7278748,
1.714166641,269.1384277,
1.715833426,271.0443115,
1.717500091,269.5917358,
1.719166636,270.5557861,
1.720833302,271.5944519,
1.722499967,269.5385742,
1.724166751,270.263092,
1.725833416,268.6703491,
1.727500081,271.4255981,
1.729166627,270.019104,
1.730833292,270.3685303,
1.732500076,271.0088196,
1.734166741,269.514679,
1.735833406,271.4926758,
1.737499952,268.5731201,
1.739166617,268.774292,
1.740833402,272.5245972,
1.742500067,269.8005371,
1.744166732,270.5340271,
1.745833278,270.0092163,
1.747499943,269.4884033,
1.749166727,269.8560486,
1.750833392,269.8674927,
1.752500057,269.8317261,
1.754166722,270.4599609,
1.755833268,272.1092834,
1.757500052,269.9783325,
1.759166718,269.2052917,
1.760833383,269.90979,
1.762500048,270.8607483,
1.764166594,270.947113,
1.765833378,270.1080017,
1.767500043,270.9287415,
1.769166708,269.7756042,
1.770833373,269.6077271,
1.772499919,271.3418884,
1.774166703,269.9979248,
1.775833368,269.271637,
1.777500033,270.3775635,
1.779166698,270.3864136,
1.780833364,270.599762,
1.782500029,269.8042297,
1.784166694,271.7778931,
1.785833359,271.5242004,
1.787500024,270.9458923,
1.789166689,269.3942871,
1.790833354,270.0674438,
1.792500019,270.9854126,
1.794166684,270.4690552,
1.795833349,271.6963501,
1.797500014,269.6954956,
1.799166799,269.3824463,
1.800833344,269.6228027,
1.80250001,270.9768677,
1.804166675,269.0255737,
1.80583334,269.9607544,
1.807500124,270.8261719,
1.80916667,269.4464417,
1.810833335,271.6666565,
1.8125,270.3135681,
1.814166665,270.8704529,
1.815833449,270.0647583,
1.817499995,270.369751,
1.81916666,270.268158,
1.820833325,269.6665344,
1.82249999,271.7427673,
1.824166775,270.3135071,
1.82583344,270.2384644,
1.827499986,270.080719,
1.829166651,270.6306458,
1.830833316,272.1854858,
1.8325001,270.758728,
1.834166765,269.7106628,
1.835833311,269.2826538,
1.837499976,270.9471436,
1.839166641,270.9372864,
1.840833426,270.0019836,
1.842500091,269.0219727,
1.844166636,269.3633118,
1.845833302,270.1723328,
1.847499967,270.6001892,
1.849166751,269.7139893,
1.850833416,270.704071,
1.852500081,272.4602051,
1.854166627,272.5611877,
1.855833292,272.100708,
1.857500076,272.3593445,
1.859166741,269.397522,
1.860833406,269.8483276,
1.862499952,268.682373,
1.864166617,272.9790039,
1.865833402,272.1193237,
1.867500067,270.6773376,
1.869166732,269.700592,
1.870833278,270.7688293,
1.872499943,269.6268311,
1.874166727,271.4468079,
1.875833392,271.3403931,
1.877500057,272.4252014,
1.879166722,269.9599609,
1.880833268,269.4013367,
1.882500052,269.2208862,
1.884166718,269.3963928,
1.885833383,270.7676697,
1.887500048,271.0681458,
1.889166594,271.8424988,
1.890833378,270.8378296,
1.892500043,269.2133179,
1.894166708,269.9832458,
1.895833373,270.5061035,
1.897499919,270.5044556,
1.899166703,270.6680298,
1.900833368,268.932373,
1.902500033,271.1651611,
1.904166698,270.7191162,
1.905833364,272.1482544,
1.907500029,271.1095276,
1.909166694,269.5724182,
1.910833359,270.4543152,
1.912500024,270.4917297,
1.914166689,270.6576538,
1.915833354,273.0522766,
1.917500019,269.87323,
1.919166684,269.2056885,
1.920833349,270.2719116,
1.922500014,270.723877,
1.924166799,269.1302795,
1.925833344,270.3062744,
1.92750001,270.571228,
1.929166675,272.0168762,
1.93083334,271.2245178,
1.932500124,271.0865479,
1.93416667,270.0585938,
1.935833335,272.2600098,
1.9375,269.3013306,
1.939166665,271.7971497,
1.940833449,270.2265625,
1.942499995,271.700531,
1.94416666,270.5227966,
1.945833325,271.2959595,
1.94749999,271.5251465,
1.949166775,270.0582886,
1.95083344,272.1530151,
1.952499986,269.817749,
1.954166651,269.6954041,
1.955833316,270.8423462,
1.9575001,271.2705078,
1.959166765,273.5440979,
1.960833311,271.1601563,
1.962499976,271.5711365,
1.964166641,269.9518127,
1.965833426,271.3716125,
1.967500091,268.7451477,
1.969166636,271.4483337,
1.970833302,271.1986084,
1.972499967,270.6477356,
1.974166751,269.8786316,
1.975833416,271.3616028,
1.977500081,271.5261841,
1.979166627,269.3416443,
1.980833292,269.3021851,
1.982500076,269.6474304,
1.984166741,269.754425,
1.985833406,269.6760254,
1.987499952,270.1100159,
1.989166617,273.8578491,
1.990833402,271.5847168,
1.992500067,271.2308655,
1.994166732,271.6776123,
1.995833278,269.6037903,
1.997499943,272.8990479,
1.999166727,268.3825989,
2.000833273,270.2904358,
2.002500057,270.7079163,
2.004166603,272.119751,
2.005833387,269.7479858,
2.007500172,270.6994934,
2.009166718,267.6727295,
2.010833263,270.3617859,
2.012500048,272.8313293,
2.014166594,269.5984192,
2.015833378,269.673584,
2.017500162,270.273468,
2.019166708,269.982666,
2.020833254,269.9118652,
2.022500038,271.8817139,
2.024166822,270.5631104,
2.025833368,269.5459595,
2.027499914,269.3852234,
2.029166698,269.1022339,
2.030833244,269.7531433,
2.032500029,270.4544983,
2.034166813,270.4439392,
2.035833359,271.0534363,
2.037499905,271.9213867,
2.039166689,271.6490784,
2.040833473,269.7301025,
2.042500019,272.1163635,
2.044166803,270.2722168,
2.045833349,270.2174072,
2.047499895,270.3811035,
2.049166679,270.23526,
2.050833464,271.6730652,
2.05250001,271.6843872,
2.054166555,269.787384,
2.05583334,269.8724365,
2.057500124,270.2368469,
2.05916667,270.6195679,
2.060833454,269.5169373,
2.0625,271.3148804,
2.064166546,270.2331543,
2.06583333,271.047821,
2.067500114,270.7139893,
2.06916666,269.4782715,
2.070833445,271.4379578,
2.07249999,271.0654297,
2.074166775,270.1940308,
2.075833321,270.9752502,
2.077500105,271.6513672,
2.079166651,271.868866,
2.080833197,268.9636536,
2.082499981,271.6946716,
2.084166765,272.7973633,
2.085833311,270.2658081,
2.087500095,270.1994324,
2.089166641,271.9319153,
2.090833426,271.7145996,
2.092499971,272.6613464,
2.094166756,269.0158386,
2.095833302,270.2965088,
2.097500086,270.5578918,
2.099166632,271.8862305,
2.100833416,271.5322571,
2.102499962,270.3720703,
2.104166746,270.2279968,
2.105833292,271.2131653,
2.107500076,269.9744873,
2.109166622,271.489624,
2.110833406,269.1945496,
2.112499952,271.5685425,
2.114166737,270.3759766,
2.115833521,270.1984558,
2.117500067,272.1760864,
2.119166613,270.5523682,
2.120833397,270.7049866,
2.122499943,271.2382507,
2.124166727,271.993042,
2.125833273,270.1102905,
2.127500057,270.4399719,
2.129166603,270.8683167,
2.130833387,271.1669312,
2.132500172,270.1286621,
2.134166718,274.1365356,
2.135833502,269.7703552,
2.137500048,272.9598389,
2.139166832,269.4126892,
2.140833378,271.8285217,
2.142500162,270.1261292,
2.144166708,270.9681702,
2.145833254,270.1132507,
2.147500038,270.0063171,
2.149166584,270.7902527,
2.150833368,271.6678467,
2.152500153,269.4525452,
2.154166698,271.1378479,
2.155833483,270.4916077,

