1,,
Time (min),Intensity (a.u.),
0.0008333333535,18.77895927,
0.002500000177,18.75264549,
0.004166666884,18.84542465,
0.005833333358,18.89112854,
0.007500000298,19.03066826,
0.009166667238,18.64565086,
0.01083333418,18.62461662,
0.01250000019,18.38274384,
0.01416666713,18.69913292,
0.01583333313,18.53047943,
0.01750000194,18.5833683,
0.01916666701,18.79113388,
0.02083333395,18.6513195,
0.02250000089,18.63202095,
0.02416666783,18.45464325,
0.02583333477,18.74682808,
0.02749999985,18.96554756,
0.02916666679,18.7741642,
0.03083333373,18.49588966,
0.03250000253,18.61950684,
0.03416666761,18.74574852,
0.03583333641,18.84538078,
0.03750000149,18.81251144,
0.03916667029,19.11108208,
0.04083333537,19.2091198,
0.04250000045,18.82330322,
0.04416666925,18.85058022,
0.04583333433,18.5429821,
0.04750000313,18.53456306,
0.04916666821,18.66653824,
0.05083333328,18.67316246,
0.05250000209,18.68697929,
0.05416666716,19.22637367,
0.05583333597,19.00610161,
0.05750000104,18.96879768,
0.05916666612,18.76704597,
0.06083333492,18.91851425,
0.0625,18.92731285,
0.06416667253,19.02460289,
0.0658333376,18.51398277,
0.06750000268,18.82372665,
0.06916666776,18.09255981,
0.07083333284,18.50440216,
0.07249999791,18.51087761,
0.07416667044,18.60814476,
0.07583333552,18.43287468,
0.0775000006,19.02200317,
0.07916666567,18.51361847,
0.08083333075,18.7876358,
0.08250000328,18.66687584,
0.08416666836,19.10068321,
0.08583333343,18.75608253,
0.08749999851,18.73197937,
0.08916666359,18.62933731,
0.09083333611,18.87017822,
0.09250000119,18.60138702,
0.09416666627,18.18454742,
0.09583333135,18.79598808,
0.09749999642,18.32709885,
0.09916666895,18.91799736,
0.100833334,19.02230835,
0.1024999991,19.07648277,
0.1041666642,18.66756439,
0.1058333293,18.49611855,
0.1075000018,18.47552681,
0.1091666669,18.75908661,
0.1108333319,18.55189705,
0.112499997,18.38079834,
0.1141666621,18.80370522,
0.1158333346,18.78699112,
0.1174999997,18.69943619,
0.1191666648,18.98163033,
0.1208333299,18.50158119,
0.1224999949,18.67212296,
0.1241666749,18.8025589,
0.1258333325,18.811903,
0.1274999976,18.86484528,
0.1291666627,18.98464394,
0.1308333278,18.54749489,
0.1325000077,18.57125473,
0.1341666728,18.94512177,
0.1358333379,18.91874123,
0.137500003,18.82498169,
0.1391666681,18.82850266,
0.1408333331,18.86341667,
0.1424999982,18.50810432,
0.1441666782,18.50837326,
0.1458333284,18.66332245,
0.1475000083,18.42097473,
0.1491666585,18.67939949,
0.1508333385,18.41253281,
0.1525000036,18.52127838,
0.1541666687,19.23324013,
0.1558333337,18.87811089,
0.1574999988,18.49127388,
0.1591666639,18.88805962,
0.1608333439,18.89289284,
0.162499994,18.66565132,
0.164166674,19.01215935,
0.1658333242,18.32258606,
0.1675000042,18.72305107,
0.1691666692,18.89151382,
0.1708333343,18.87639046,
0.1724999994,18.27651215,
0.1741666645,18.65797997,
0.1758333296,18.86938858,
0.1775000095,18.83406067,
0.1791666597,18.73359108,
0.1808333397,19.07436562,
0.1824999899,18.79161072,
0.1841666698,18.58032608,
0.1858333498,18.99108124,
0.1875,18.44257545,
0.18916668,18.85713959,
0.1908333302,18.84493446,
0.1925000101,18.60510635,
0.1941666752,18.32083702,
0.1958333403,18.84183311,
0.1975000054,18.44301033,
0.1991666704,18.79846573,
0.2008333355,18.57414627,
0.2025000155,18.51259041,
0.2041666657,18.89059067,
0.2058333457,18.80055237,
0.2074999958,18.5182991,
0.2091666758,18.95679283,
0.2108333409,18.82730865,
0.212500006,18.51996803,
0.214166671,18.61628532,
0.2158333361,18.86535263,
0.2175000012,18.77741051,
0.2191666812,18.42818069,
0.2208333313,19.13557434,
0.2225000113,18.71025467,
0.2241666615,18.94832039,
0.2258333415,18.64177895,
0.2275000066,18.73292732,
0.2291666716,18.64377403,
0.2308333367,18.91944313,
0.2325000018,19.0236454,
0.2341666669,18.56051826,
0.2358333468,18.86792564,
0.237499997,18.37675095,
0.239166677,18.49265099,
0.2408333272,18.34081841,
0.2425000072,18.70990181,
0.2441666722,18.88498306,
0.2458333373,19.04246902,
0.2475000024,18.53388786,
0.2491666675,18.72260475,
0.2508333325,18.8792572,
0.2524999976,18.7933445,
0.2541666627,18.83808899,
0.2558333278,18.56342888,
0.2574999928,18.6979866,
0.2591666579,18.79567909,
0.2608333528,18.72150421,
0.2624999881,18.70254517,
0.264166683,18.78025055,
0.2658333182,19.03996658,
0.2675000131,18.86893654,
0.2691666484,18.60423851,
0.2708333433,18.44460106,
0.2725000083,18.43732643,
0.2741666734,18.95212936,
0.2758333385,18.6408596,
0.2775000036,18.45954514,
0.2791666687,18.76217079,
0.2808333337,18.26199532,
0.2824999988,18.76399422,
0.2841666937,18.66351128,
0.285833329,18.99822044,
0.287499994,18.45523262,
0.2891666591,18.82509804,
0.290833354,18.78899384,
0.2925000191,18.96550751,
0.2941666543,18.73674011,
0.2958333194,18.64782333,
0.2975000143,19.12206078,
0.2991666794,18.56824112,
0.3008333445,18.66973686,
0.3024999797,18.46681213,
0.3041666746,18.87566185,
0.3058333397,18.5844841,
0.3075000048,18.75018501,
0.3091666996,18.88551903,
0.3108333349,18.38237381,
0.3125,18.83224487,
0.3141666651,19.06609726,
0.31583336,18.51137543,
0.317500025,18.93650246,
0.3191666603,18.49227715,
0.3208333254,18.41433525,
0.3225000203,18.54632568,
0.3241666853,18.95484543,
0.3258333504,18.92676163,
0.3274999857,18.77224731,
0.3291666806,19.15457726,
0.3308333457,18.9641037,
0.3325000107,18.70511246,
0.3341666758,18.50012207,
0.3358333409,18.76234436,
0.337500006,18.82712555,
0.339166671,19.01361275,
0.3408333361,18.58576012,
0.342500031,18.56245995,
0.3441666663,18.88572502,
0.3458333313,18.41844559,
0.3474999964,18.82169151,
0.3491666913,18.66515923,
0.3508333564,18.6949482,
0.3524999917,18.52103043,
0.3541666567,18.37532234,
0.3558333516,18.73696709,
0.3575000167,18.94841194,
0.3591666818,18.78334618,
0.360833317,18.59928894,
0.3625000119,18.65982628,
0.364166677,18.72632408,
0.3658333421,19.18257141,
0.3675000072,18.25701332,
0.3691666722,18.86714172,
0.3708333373,18.6466732,
0.3725000024,18.65138054,
0.3741666675,18.9834671,
0.3758333623,18.66919899,
0.3774999976,19.0158577,
0.3791666627,18.79006767,
0.3808333278,18.35842705,
0.3825000226,18.70213699,
0.3841666877,18.66698456,
0.385833323,18.60871124,
0.3874999881,19.20920563,
0.389166683,18.2730999,
0.390833348,18.84758186,
0.3925000131,18.45724297,
0.3941666484,18.84619904,
0.3958333433,18.82608223,
0.3975000083,18.91672325,
0.3991666734,18.66537285,
0.4008333385,18.54473495,
0.4025000036,18.67465019,
0.4041666687,18.74254799,
0.4058333337,18.96501541,
0.4074999988,18.90734863,
0.4091666937,18.63957024,
0.410833329,18.86234283,
0.412499994,18.71492195,
0.4141666591,18.49414253,
0.415833354,19.02079964,
0.4175000191,18.73368454,
0.4191666543,18.37339211,
0.4208333194,18.56871223,
0.4225000143,18.64591217,
0.4241666794,18.97846222,
0.4258333445,18.64834213,
0.4274999797,18.76788139,
0.4291666746,18.56466484,
0.4308333397,18.80566978,
0.4325000048,18.49746132,
0.4341666996,18.56879425,
0.4358333349,18.70678329,
0.4375,18.70845985,
0.4391666651,18.4477272,
0.44083336,18.77902222,
0.442500025,18.7064743,
0.4441666603,18.73308945,
0.4458333254,18.44592285,
0.4475000203,18.650383,
0.4491666853,18.87179565,
0.4508333504,19.22095108,
0.4524999857,18.62354088,
0.4541666806,18.54412079,
0.4558333457,18.6074791,
0.4575000107,18.6162262,
0.4591666758,18.40193367,
0.4608333409,18.63339233,
0.462500006,18.59798813,
0.464166671,18.80073738,
0.4658333361,18.55840111,
0.467500031,18.63208199,
0.4691666663,18.32365227,
0.4708333313,18.66898346,
0.4724999964,18.64620972,
0.4741666913,18.76479149,
0.4758333564,18.60692787,
0.4774999917,18.61602211,
0.4791666567,18.80194283,
0.4808333516,18.85364151,
0.4825000167,18.80985069,
0.4841666818,18.88602448,
0.485833317,18.47061157,
0.4875000119,18.57891083,
0.489166677,18.43002701,
0.4908333421,18.73934174,
0.4925000072,18.82671738,
0.4941666722,18.45345879,
0.4958333373,18.47953224,
0.4975000024,18.83367157,
0.4991666675,18.62075233,
0.5008333325,18.66390038,
0.5024999976,18.58609772,
0.5041666627,19.07762337,
0.5058333278,18.9196682,
0.5074999928,18.20868301,
0.5091666579,18.53838158,
0.510833323,18.64805984,
0.5124999881,18.32008362,
0.5141666532,18.93842316,
0.5158333182,18.95261955,
0.5175000429,18.67150116,
0.5191666484,18.61933899,
0.5208333135,18.49079132,
0.5224999785,18.58277512,
0.5241667032,18.54474068,
0.5258333683,18.86837387,
0.5274999738,18.85222244,
0.5291666389,18.85216904,
0.5308333635,18.61902809,
0.5325000286,19.04127312,
0.5341666341,18.98573112,
0.5358333588,18.37991333,
0.5375000238,18.73790932,
0.5391666889,18.72836113,
0.540833354,18.49702072,
0.5424999595,18.67675591,
0.5441666842,18.51307678,
0.5458333492,18.59054375,
0.5475000143,18.39775658,
0.5491666794,18.85700989,
0.5508333445,18.98013115,
0.5525000095,18.62719917,
0.5541666746,18.61039162,
0.5558333993,18.54167747,
0.5575000048,18.68538857,
0.5591666698,18.84176826,
0.5608333349,18.88243866,
0.5625,18.53874588,
0.5641667247,18.9293499,
0.5658333302,18.98842239,
0.5674999952,18.72516251,
0.5691667199,19.06607056,
0.5708333254,18.38578033,
0.5725000501,18.64983177,
0.5741666555,18.44794273,
0.5758333206,19.05980301,
0.5775000453,18.55039024,
0.5791666508,18.86951065,
0.5808333755,18.72007561,
0.5825000405,18.31226349,
0.584166646,18.47386169,
0.5858333707,18.9226017,
0.5874999762,18.69584274,
0.5891667008,18.49306107,
0.5908333659,18.64722252,
0.5924999714,18.5725708,
0.5941666961,18.3801899,
0.5958333611,18.68321609,
0.5975000262,18.70159149,
0.5991666913,18.76680374,
0.6008332968,18.91060829,
0.6025000215,18.47211647,
0.6041666865,18.70841026,
0.6058333516,18.48715591,
0.6075000167,18.72206688,
0.6091666818,18.71746445,
0.6108333468,18.73007011,
0.6125000119,18.72288132,
0.614166677,18.53991508,
0.6158333421,18.49066925,
0.6175000072,18.40872383,
0.6191666722,19.05736351,
0.6208333373,18.82956505,
0.622500062,19.00080872,
0.6241666675,18.47768593,
0.6258333325,18.55178642,
0.6274999976,18.45611191,
0.6291666627,18.37865829,
0.6308333874,18.79916573,
0.6324999928,18.89106941,
0.6341666579,18.35636139,
0.6358333826,18.77205849,
0.6374999881,18.75944138,
0.6391667128,18.76939011,
0.6408333182,18.72119522,
0.6424999833,18.74840355,
0.644166708,18.66295433,
0.6458333135,18.75921059,
0.6475000381,18.4999485,
0.6491667032,18.41628265,
0.6508333087,18.64109039,
0.6525000334,18.7089901,
0.6541666389,18.72810555,
0.6558333635,18.85851288,
0.6575000286,18.96326065,
0.6591666341,18.60619545,
0.6608333588,18.69701958,
0.6625000238,18.73484421,
0.6641666889,18.56800842,
0.665833354,18.42972946,
0.6674999595,18.63361549,
0.6691666842,18.86532211,
0.6708333492,18.41911125,
0.6725000143,18.49272156,
0.6741666794,18.96868896,
0.6758333445,18.65480995,
0.6775000095,18.77995872,
0.6791666746,18.91698074,
0.6808333993,18.60476494,
0.6825000048,18.60730553,
0.6841666698,18.22602463,
0.6858333349,18.6798439,
0.6875,18.73053932,
0.6891667247,18.40670776,
0.6908333302,18.48742485,
0.6924999952,18.75436974,
0.6941667199,18.77721596,
0.6958333254,18.48820305,
0.6975000501,18.63384247,
0.6991666555,18.88602257,
0.7008333206,18.8374691,
0.7025000453,18.90834808,
0.7041666508,19.15028381,
0.7058333755,18.4901619,
0.7075000405,18.38672829,
0.709166646,18.48338699,
0.7108333707,18.52467155,
0.7124999762,18.56787872,
0.7141667008,18.69881058,
0.7158333659,18.5411377,
0.7174999714,19.05073547,
0.7191666961,18.93395042,
0.7208333611,18.32373619,
0.7225000262,18.39020348,
0.7241666913,18.66680908,
0.7258332968,18.49630547,
0.7275000215,18.39116859,
0.7291666865,18.5335083,
0.7308333516,18.72638893,
0.7325000167,18.55392456,
0.7341666818,18.89904022,
0.7358333468,18.66331673,
0.7375000119,18.7635231,
0.739166677,18.54202652,
0.7408333421,18.80812645,
0.7425000072,18.587883,
0.7441666722,18.53499031,
0.7458333373,18.95088196,
0.747500062,18.52947617,
0.7491666675,18.70247269,
0.7508333325,18.56194115,
0.7524999976,18.95919037,
0.7541666627,18.86253929,
0.7558333874,18.3869133,
0.7574999928,18.89255714,
0.7591666579,18.84767151,
0.7608333826,18.74291611,
0.7624999881,18.17709541,
0.7641667128,18.63064194,
0.7658333182,18.68133736,
0.7674999833,18.76167107,
0.769166708,19.09834862,
0.7708333135,18.62305641,
0.7725000381,18.84153366,
0.7741667032,18.72717285,
0.7758333087,18.87851524,
0.7775000334,18.7161541,
0.7791666389,18.16503906,
0.7808333635,19.0243988,
0.7825000286,18.85390472,
0.7841666341,18.56792068,
0.7858333588,18.8084774,
0.7875000238,18.62458229,
0.7891666889,18.45552063,
0.790833354,18.59464073,
0.7924999595,19.17219543,
0.7941666842,18.54685402,
0.7958333492,18.78198051,
0.7975000143,18.77870178,
0.7991666794,18.73429489,
0.8008333445,18.64678001,
0.8025000095,18.76990128,
0.8041666746,18.34537506,
0.8058333993,18.48193741,
0.8075000048,18.46390724,
0.8091666698,18.97757721,
0.8108333349,19.20223808,
0.8125,18.58130264,
0.8141667247,18.78621292,
0.8158333302,18.4971447,
0.8174999952,18.5322113,
0.8191667199,18.62086105,
0.8208333254,18.5204277,
0.8225000501,18.27359581,
0.8241666555,18.41997719,
0.8258333206,18.6526413,
0.8275000453,18.40505409,
0.8291666508,18.56056595,
0.8308333755,18.35431099,
0.8325000405,18.60088348,
0.834166646,18.58529091,
0.8358333707,18.2843914,
0.8374999762,18.72739029,
0.8391667008,18.584589,
0.8408333659,19.01579285,
0.8424999714,18.58261871,
0.8441666961,18.55234337,
0.8458333611,18.94119263,
0.8475000262,18.461483,
0.8491666913,18.87169838,
0.8508332968,18.52455139,
0.8525000215,18.68992424,
0.8541666865,18.3458271,
0.8558333516,19.04015923,
0.8575000167,18.57444954,
0.8591666818,18.61887169,
0.8608333468,18.6988163,
0.8625000119,18.61260033,
0.864166677,18.43628311,
0.8658333421,18.76458549,
0.8675000072,18.86244392,
0.8691666722,18.19128418,
0.8708333373,18.65047646,
0.872500062,18.99864388,
0.8741666675,18.59596062,
0.8758333325,18.17534828,
0.8774999976,18.6122303,
0.8791666627,18.99262238,
0.8808333874,18.48303986,
0.8824999928,18.42685127,
0.8841666579,18.44527626,
0.8858333826,18.79527283,
0.8874999881,18.52084541,
0.8891667128,18.70089722,
0.8908333182,18.73902702,
0.8924999833,18.6846447,
0.894166708,18.69230652,
0.8958333135,19.29899216,
0.8975000381,18.82713127,
0.8991667032,18.53887367,
0.9008333087,18.93840218,
0.9025000334,18.76635361,
0.9041666389,19.11673355,
0.9058333635,18.89200783,
0.9075000286,18.42746162,
0.9091666341,18.53081322,
0.9108333588,18.28916168,
0.9125000238,18.79313278,
0.9141666889,19.1900959,
0.915833354,18.33333206,
0.9174999595,18.98809433,
0.9191666842,18.43179131,
0.9208333492,18.58126259,
0.9225000143,18.84261131,
0.9241666794,18.65698814,
0.9258333445,18.51752472,
0.9275000095,18.70667458,
0.9291666746,18.57920837,
0.9308333993,18.80829048,
0.9325000048,18.67236137,
0.9341666698,18.62482262,
0.9358333349,18.58973122,
0.9375,18.42518997,
0.9391667247,18.51221657,
0.9408333302,18.97998047,
0.9424999952,18.69507027,
0.9441667199,18.6478672,
0.9458333254,18.48284912,
0.9475000501,18.33153343,
0.9491666555,18.94111824,
0.9508333206,18.34308815,
0.9525000453,18.73380661,
0.9541666508,18.96866608,
0.9558333755,18.80955315,
0.9575000405,18.88652611,
0.959166646,18.44906425,
0.9608333707,18.60708618,
0.9624999762,18.88549614,
0.9641667008,18.42564201,
0.9658333659,18.96696663,
0.9674999714,18.6832962,
0.9691666961,18.55509377,
0.9708333611,18.66111565,
0.9725000262,18.68059349,
0.9741666913,18.88112068,
0.9758332968,18.57857895,
0.9775000215,18.75734901,
0.9791666865,18.78012657,
0.9808333516,18.58282089,
0.9825000167,18.5587368,
0.9841666818,18.50992393,
0.9858333468,18.83612823,
0.9875000119,18.61631966,
0.989166677,18.69728279,
0.9908333421,18.51885796,
0.9925000072,18.34267426,
0.9941666722,18.50446129,
0.9958333373,18.79993248,
0.997500062,18.40212822,
0.9991666675,18.81421852,
1.000833273,18.55694962,
1.002500057,18.70416832,
1.004166722,18.71243095,
1.005833387,18.56250572,
1.007500052,18.8390274,
1.009166598,18.60749626,
1.010833383,18.16843605,
1.012500048,18.72130775,
1.014166713,18.74746132,
1.015833378,18.74110985,
1.017500043,18.47032738,
1.019166708,18.69119263,
1.020833373,18.70781708,
1.022500038,18.59927368,
1.024166703,18.00863075,
1.025833368,18.4136734,
1.027500033,18.5990715,
1.029166698,18.62591934,
1.030833364,18.93660355,
1.032500029,18.93496895,
1.034166694,18.71875,
1.035833359,18.56036949,
1.037500024,18.83985901,
1.039166689,18.73294449,
1.040833354,27.31030273,
1.042500019,33.54180145,
1.044166684,41.75734711,
1.045833349,48.41252518,
1.047500014,79.38705444,
1.049166679,77.79360962,
1.050833344,102.6992264,
1.05250001,105.3531036,
1.054166675,119.0549545,
1.05583334,139.3488312,
1.057500005,118.3768387,
1.05916667,161.8503876,
1.060833335,172.3318329,
1.0625,180.1900635,
1.064166665,188.405365,
1.06583333,194.4165955,
1.067499995,199.8010712,
1.06916666,207.259903,
1.070833325,212.2131958,
1.07249999,217.4859467,
1.074166775,220.9998322,
1.07583344,225.768631,
1.077499986,231.2048645,
1.079166651,233.4784851,
1.080833316,238.1649323,
1.0825001,243.0347137,
1.084166765,242.9281006,
1.085833311,246.5075531,
1.087499976,249.9911499,
1.089166641,252.2237244,
1.090833426,253.5474548,
1.092500091,256.5789185,
1.094166636,258.6700439,
1.095833302,260.0759583,
1.097499967,261.2441406,
1.099166751,264.2150879,
1.100833416,266.768158,
1.102500081,266.8252869,
1.104166627,268.5845642,
1.105833292,272.2389832,
1.107500076,272.6004639,
1.109166741,273.5519409,
1.110833406,275.414856,
1.112499952,275.142395,
1.114166617,277.8340149,
1.115833402,277.6236572,
1.117500067,278.9315796,
1.119166732,278.9250488,
1.120833278,279.1999207,
1.122499943,281.3136292,
1.124166727,282.2812195,
1.125833392,285.0538635,
1.127500057,286.7028809,
1.129166722,284.3978577,
1.130833268,286.7550964,
1.132500052,287.2491455,
1.134166718,288.6051636,
1.135833383,288.8803101,
1.137500048,288.3782654,
1.139166594,291.138855,
1.140833378,289.3372803,
1.142500043,292.0636292,
1.144166708,291.2627869,
1.145833373,292.476593,
1.147499919,291.2705688,
1.149166703,293.2981873,
1.150833368,293.2062988,
1.152500033,292.1568298,
1.154166698,293.8796082,
1.155833364,295.7574768,
1.157500029,295.2820129,
1.159166694,296.4558411,
1.160833359,296.2078247,
1.162500024,295.9326782,
1.164166689,297.3054199,
1.165833354,297.6094666,
1.167500019,296.4225464,
1.169166684,296.2909241,
1.170833349,298.3129578,
1.172500014,297.7912903,
1.174166799,297.9942932,
1.175833344,298.684845,
1.17750001,299.0127869,
1.179166675,300.6521912,
1.18083334,298.2447815,
1.182500124,301.1697083,
1.18416667,300.1877747,
1.185833335,300.681366,
1.1875,301.6848145,
1.189166665,301.4869385,
1.190833449,301.4477844,
1.192499995,301.0400696,
1.19416666,303.6058044,
1.195833325,300.9389648,
1.19749999,302.0997925,
1.199166775,303.5445862,
1.20083344,302.6424561,
1.202499986,302.7557983,
1.204166651,302.7456665,
1.205833316,302.5424805,
1.2075001,302.3533936,
1.209166765,301.3171692,
1.210833311,303.7375793,
1.212499976,303.4775696,
1.214166641,304.8425903,
1.215833426,302.2287598,
1.217500091,303.4815063,
1.219166636,302.7440491,
1.220833302,303.7073059,
1.222499967,304.941925,
1.224166751,304.8940125,
1.225833416,304.7590637,
1.227500081,302.4463196,
1.229166627,302.7653198,
1.230833292,306.4908142,
1.232500076,304.5514526,
1.234166741,302.7094116,
1.235833406,305.1716614,
1.237499952,303.6097412,
1.239166617,303.4150391,
1.240833402,304.0700378,
1.242500067,305.5074158,
1.244166732,303.9796448,
1.245833278,304.3421021,
1.247499943,305.3432312,
1.249166727,306.250946,
1.250833392,306.6806946,
1.252500057,304.3548889,
1.254166722,305.1939697,
1.255833268,306.0945129,
1.257500052,305.8599854,
1.259166718,305.2635498,
1.260833383,305.5253296,
1.262500048,303.7810364,
1.264166594,306.5903625,
1.265833378,306.0765991,
1.267500043,305.4506836,
1.269166708,305.6819153,
1.270833373,306.4556274,
1.272499919,305.9835815,
1.274166703,305.1751404,
1.275833368,308.1268921,
1.277500033,305.9980774,
1.279166698,307.0344238,
1.280833364,306.3695984,
1.282500029,306.6220398,
1.284166694,306.530304,
1.285833359,306.6021118,
1.287500024,307.0231323,
1.289166689,308.3220825,
1.290833354,305.7890625,
1.292500019,304.9621277,
1.294166684,309.5202637,
1.295833349,307.8828125,
1.297500014,308.1034546,
1.299166799,309.7911987,
1.300833344,307.3259277,
1.30250001,307.5164795,
1.304166675,308.4842834,
1.30583334,307.3048096,
1.307500124,307.3866577,
1.30916667,307.4003601,
1.310833335,306.4112549,
1.3125,306.0183105,
1.314166665,307.7719421,
1.315833449,307.8855286,
1.317499995,308.3100891,
1.31916666,308.2550659,
1.320833325,309.9140625,
1.32249999,307.5084839,
1.324166775,309.5502625,
1.32583344,308.4541626,
1.327499986,307.8400269,
1.329166651,308.4667664,
1.330833316,308.622467,
1.3325001,307.4093018,
1.334166765,308.4360046,
1.335833311,309.8479309,
1.337499976,307.1711731,
1.339166641,307.6868591,
1.340833426,308.7454224,
1.342500091,307.7561951,
1.344166636,309.4019165,
1.345833302,309.7309265,
1.347499967,309.0581055,
1.349166751,309.6072693,
1.350833416,308.4704895,
1.352500081,308.7122498,
1.354166627,307.7621155,
1.355833292,310.0927429,
1.357500076,307.5499573,
1.359166741,308.530304,
1.360833406,308.6461487,
1.362499952,308.7194824,
1.364166617,310.2643127,
1.365833402,309.0198364,
1.367500067,307.9526062,
1.369166732,307.1003418,
1.370833278,309.699707,
1.372499943,310.3106079,
1.374166727,309.8803101,
1.375833392,310.1746826,
1.377500057,310.0098877,
1.379166722,309.77948,
1.380833268,311.0951233,
1.382500052,309.4792786,
1.384166718,310.0599365,
1.385833383,309.8666992,
1.387500048,308.4554138,
1.389166594,308.844635,
1.390833378,310.8215332,
1.392500043,308.010437,
1.394166708,310.7599487,
1.395833373,310.2854004,
1.397499919,310.4742737,
1.399166703,310.299408,
1.400833368,309.1133118,
1.402500033,309.8937988,
1.404166698,309.807312,
1.405833364,308.5727234,
1.407500029,309.3855591,
1.409166694,309.9411316,
1.410833359,308.9268799,
1.412500024,309.2777405,
1.414166689,309.7546997,
1.415833354,310.5336914,
1.417500019,308.6789551,
1.419166684,310.3125916,
1.420833349,309.5982971,
1.422500014,308.8690796,
1.424166799,309.125824,
1.425833344,309.7670898,
1.42750001,309.8730469,
1.429166675,310.019989,
1.43083334,311.7905884,
1.432500124,311.469574,
1.43416667,309.8749084,
1.435833335,308.7861023,
1.4375,310.5667114,
1.439166665,309.169281,
1.440833449,311.1292725,
1.442499995,310.6185913,
1.44416666,309.259613,
1.445833325,310.4786072,
1.44749999,311.8070068,
1.449166775,309.6283569,
1.45083344,309.4887085,
1.452499986,310.5802612,
1.454166651,309.808075,
1.455833316,310.1264343,
1.4575001,311.2561035,
1.459166765,311.9792786,
1.460833311,310.9949341,
1.462499976,310.350647,
1.464166641,310.2663269,
1.465833426,310.6064453,
1.467500091,309.2372131,
1.469166636,311.3735657,
1.470833302,310.7385254,
1.472499967,309.6869812,
1.474166751,310.9920654,
1.475833416,309.5996704,
1.477500081,309.4026489,
1.479166627,310.696991,
1.480833292,310.0118408,
1.482500076,311.0292969,
1.484166741,311.0198059,
1.485833406,310.2601318,
1.487499952,310.7905884,
1.489166617,310.8477173,
1.490833402,310.5027771,
1.492500067,310.5916443,
1.494166732,310.7532654,
1.495833278,310.1986389,
1.497499943,310.6743469,
1.499166727,311.1154175,
1.500833392,308.4686279,
1.502500057,309.9806824,
1.504166722,310.1632996,
1.505833268,309.2828979,
1.507500052,309.9839783,
1.509166718,311.4967651,
1.510833383,311.4059753,
1.512500048,312.0636292,
1.514166594,311.4507141,
1.515833378,310.4267273,
1.517500043,310.0971375,
1.519166708,310.2341614,
1.520833373,309.6998596,
1.522499919,309.8796082,
1.524166703,310.6286316,
1.525833368,308.6437378,
1.527500033,311.2204285,
1.529166698,311.6972961,
1.530833364,312.0124207,
1.532500029,310.5464478,
1.534166694,309.4670715,
1.535833359,310.1961975,
1.537500024,310.6201172,
1.539166689,309.5917664,
1.540833354,311.4924316,
1.542500019,310.3991394,
1.544166684,309.7832947,
1.545833349,309.211853,
1.547500014,310.7866821,
1.549166799,309.5232544,
1.550833344,310.9490967,
1.55250001,309.3093262,
1.554166675,312.2604065,
1.55583334,311.8596497,
1.557500124,309.9143066,
1.55916667,311.983429,
1.560833335,310.0787964,
1.5625,310.1455688,
1.564166665,310.5673523,
1.565833449,310.9758301,
1.567499995,310.0139465,
1.56916666,311.146759,
1.570833325,311.5496216,
1.57249999,310.9850769,
1.574166775,311.6948242,
1.57583344,311.131012,
1.577499986,311.1582642,
1.579166651,310.1622314,
1.580833316,311.7355042,
1.5825001,311.9163818,
1.584166765,311.2142334,
1.585833311,310.4813232,
1.587499976,310.6569519,
1.589166641,309.9710693,
1.590833426,309.9188843,
1.592500091,310.1853027,
1.594166636,309.0081177,
1.595833302,311.927124,
1.597499967,309.5895691,
1.599166751,310.0687866,
1.600833416,311.5192871,
1.602500081,309.9346008,
1.604166627,310.9138489,
1.605833292,311.0722351,
1.607500076,311.2657471,
1.609166741,313.1784363,
1.610833406,309.6650391,
1.612499952,313.8930054,
1.614166617,310.4953308,
1.615833402,310.8074341,
1.617500067,312.2787476,
1.619166732,308.5365906,
1.620833278,310.2442932,
1.622499943,310.0874023,
1.624166727,311.3455505,
1.625833392,310.7460022,
1.627500057,310.7653198,
1.629166722,309.2449036,
1.630833268,310.2727356,
1.632500052,310.3493042,
1.634166718,309.9595947,
1.635833383,310.628418,
1.637500048,310.8708496,
1.639166594,310.1834412,
1.640833378,311.3375854,
1.642500043,310.6398621,
1.644166708,310.7298584,
1.645833373,310.8704224,
1.647499919,310.6700439,
1.649166703,309.0432434,
1.650833368,312.6156311,
1.652500033,309.8244019,
1.654166698,309.9654846,
1.655833364,311.0545959,
1.657500029,310.0518188,
1.659166694,310.661499,
1.660833359,311.2822571,
1.662500024,310.600647,
1.664166689,311.9894104,
1.665833354,311.1325378,
1.667500019,309.6184082,
1.669166684,312.0487061,
1.670833349,310.1125183,
1.672500014,311.1510315,
1.674166799,310.3279724,
1.675833344,311.7655029,
1.67750001,310.707428,
1.679166675,310.5078125,
1.68083334,310.1850891,
1.682500124,309.7458496,
1.68416667,310.9684143,
1.685833335,310.6923218,
1.6875,309.6076965,
1.689166665,312.9066467,
1.690833449,311.4858398,
1.692499995,309.698822,
1.69416666,310.6979065,
1.695833325,311.2950745,
1.69749999,311.6261902,
1.699166775,312.9550781,
1.70083344,311.4353638,
1.702499986,310.4186096,
1.704166651,311.0712891,
1.705833316,311.9006042,
1.7075001,310.5314941,
1.709166765,310.3822021,
1.710833311,310.6966858,
1.712499976,311.602356,
1.714166641,311.6119385,
1.715833426,310.5808716,
1.717500091,311.2111511,
1.719166636,311.7098694,
1.720833302,310.4576416,
1.722499967,309.6568298,
1.724166751,311.125824,
1.725833416,311.0613708,
1.727500081,309.6040649,
1.729166627,308.5282288,
1.730833292,312.4418945,
1.732500076,310.3278198,
1.734166741,309.2050171,
1.735833406,311.0013428,
1.737499952,310.4585266,
1.739166617,311.5626526,
1.740833402,311.7914429,
1.742500067,311.4978027,
1.744166732,313.0484009,
1.745833278,311.3907776,
1.747499943,311.309967,
1.749166727,312.5437622,
1.750833392,310.7658691,
1.752500057,314.0279846,
1.754166722,312.1337585,
1.755833268,311.1784058,
1.757500052,310.3330688,
1.759166718,311.5136414,
1.760833383,310.0453186,
1.762500048,310.3494263,
1.764166594,310.3991394,
1.765833378,311.8128357,
1.767500043,310.9434204,
1.769166708,309.9495544,
1.770833373,311.7932739,
1.772499919,311.744873,
1.774166703,311.7671204,
1.775833368,309.278717,
1.777500033,310.6941528,
1.779166698,311.5928955,
1.780833364,310.6321106,
1.782500029,309.3357239,
1.784166694,311.8686523,
1.785833359,311.6962891,
1.787500024,310.0818481,
1.789166689,310.482666,
1.790833354,311.9390564,
1.792500019,311.4100342,
1.794166684,311.2199097,
1.795833349,310.9129333,
1.797500014,310.6066589,
1.799166799,310.8999023,
1.800833344,310.3612671,
1.80250001,311.3345642,
1.804166675,309.9909973,
1.80583334,310.9972534,
1.807500124,311.0628052,
1.80916667,312.1288452,
1.810833335,312.7006836,
1.8125,310.7687073,
1.814166665,311.6288452,
1.815833449,310.1191711,
1.817499995,311.0137329,
1.81916666,309.6596069,
1.820833325,311.0393066,
1.82249999,310.4091492,
1.824166775,312.7476501,
1.82583344,310.0167847,
1.827499986,311.5664673,
1.829166651,310.2944336,
1.830833316,311.3092651,
1.8325001,310.5001526,
1.834166765,310.4397583,
1.835833311,309.5360718,
1.837499976,310.3098145,
1.839166641,311.6796875,
1.840833426,312.0431824,
1.842500091,311.3868713,
1.844166636,309.2546692,
1.845833302,312.0571594,
1.847499967,312.0294189,
1.849166751,310.1696777,
1.850833416,311.026123,
1.852500081,310.9131775,
1.854166627,311.9281311,
1.855833292,311.2367249,
1.857500076,311.7347107,
1.859166741,311.2564697,
1.860833406,311.4161987,
1.862499952,311.7655334,
1.864166617,311.572876,
1.865833402,311.6477051,
1.867500067,312.1119995,
1.869166732,310.7783508,
1.870833278,310.2796936,
1.872499943,311.7435608,
1.874166727,311.984375,
1.875833392,310.462738,
1.877500057,310.9821472,
1.879166722,310.5489807,
1.880833268,310.8700562,
1.882500052,311.2999573,
1.884166718,309.4276428,
1.885833383,311.7303772,
1.887500048,310.5922241,
1.889166594,309.9388428,
1.890833378,311.0003052,
1.892500043,312.1347656,
1.894166708,310.0387268,
1.895833373,309.2793884,
1.897499919,310.5918579,
1.899166703,311.604187,
1.900833368,312.0453186,
1.902500033,311.8456116,
1.904166698,313.063446,
1.905833364,311.6617432,
1.907500029,312.1472778,
1.909166694,311.6360474,
1.910833359,311.2977295,
1.912500024,311.2515259,
1.914166689,312.3955688,
1.915833354,310.972229,
1.917500019,310.5765381,
1.919166684,311.1225891,
1.920833349,310.3602295,
1.922500014,310.7501526,
1.924166799,310.0506592,
1.925833344,312.0447998,
1.92750001,310.6874695,
1.929166675,312.4927368,
1.93083334,311.8223572,
1.932500124,312.3650208,
1.93416667,311.4414673,
1.935833335,311.255127,
1.9375,309.5679321,
1.939166665,312.0682068,
1.940833449,312.6339722,
1.942499995,311.4254761,
1.94416666,312.4538574,
1.945833325,312.1941528,
1.94749999,311.215332,
1.949166775,311.577179,
1.95083344,313.0629272,
1.952499986,311.1806946,
1.954166651,311.6415405,
1.955833316,312.1704102,
1.9575001,310.1096191,
1.959166765,313.6568909,
1.960833311,312.4783936,
1.962499976,312.0377197,
1.964166641,310.2200012,
1.965833426,312.7868042,
1.967500091,310.4160767,
1.969166636,311.5688782,
1.970833302,310.5598145,
1.972499967,310.6436157,
1.974166751,311.0157776,
1.975833416,312.203949,
1.977500081,310.8489685,
1.979166627,311.2972107,
1.980833292,311.0447693,
1.982500076,313.1878967,
1.984166741,311.3366089,
1.985833406,309.9439697,
1.987499952,310.5317078,
1.989166617,310.3229675,
1.990833402,311.5822144,
1.992500067,310.2776184,
1.994166732,308.8174438,
1.995833278,313.440918,
1.997499943,311.657135,
1.999166727,311.579834,
2.000833273,311.5488892,
2.002500057,312.2386169,
2.004166603,312.2481995,
2.005833387,311.0041199,
2.007500172,311.6520386,
2.009166718,313.6455078,
2.010833263,312.5574646,
2.012500048,311.4043884,
2.014166594,312.8287964,
2.015833378,311.2467346,
2.017500162,311.8096924,
2.019166708,311.188385,
2.020833254,310.2855835,
2.022500038,312.7676697,
2.024166822,311.9265442,
2.025833368,311.20578,
2.027499914,313.0484619,
2.029166698,310.7271729,
2.030833244,313.1070862,
2.032500029,311.4033203,
2.034166813,309.2102051,
2.035833359,310.9602051,
2.037499905,312.1025391,
2.039166689,311.2149048,
2.040833473,312.5093994,
2.042500019,309.5632324,
2.044166803,310.4224854,
2.045833349,310.0749512,
2.047499895,309.7210083,
2.049166679,313.9570618,
2.050833464,311.6873169,
2.05250001,313.0012817,

