1,,
Time (min),Intensity (a.u.),
0.0008333333535,47.46731186,
0.002500000177,47.03268433,
0.004166666884,47.7310791,
0.005833333358,47.36728287,
0.007500000298,47.1820755,
0.009166667238,46.74346924,
0.01083333418,46.9868927,
0.01250000019,46.96476746,
0.01416666713,47.67160416,
0.01583333313,47.23920822,
0.01750000194,47.32881927,
0.01916666701,47.66607666,
0.02083333395,47.20842361,
0.02250000089,47.76914215,
0.02416666783,46.90517426,
0.02583333477,47.32483673,
0.02749999985,47.39951706,
0.02916666679,47.63381577,
0.03083333373,46.98215485,
0.03250000253,47.34320831,
0.03416666761,47.88074112,
0.03583333641,46.68411255,
0.03750000149,47.30416489,
0.03916667029,47.29362106,
0.04083333537,47.38005066,
0.04250000045,47.2325592,
0.04416666925,47.41805267,
0.04583333433,46.6811676,
0.04750000313,47.19774246,
0.04916666821,47.09997177,
0.05083333328,47.09769058,
0.05250000209,47.40762711,
0.05416666716,48.3177948,
0.05583333597,47.65680695,
0.05750000104,47.92806244,
0.05916666612,47.01783371,
0.06083333492,48.4678154,
0.0625,48.20101166,
0.06416667253,47.16428375,
0.0658333376,47.51251602,
0.06750000268,47.90436935,
0.06916666776,47.09727859,
0.07083333284,46.98402405,
0.07249999791,47.33652496,
0.07416667044,47.20155334,
0.07583333552,47.32220459,
0.0775000006,47.13401413,
0.07916666567,47.47427368,
0.08083333075,47.50864029,
0.08250000328,47.49115372,
0.08416666836,46.79695511,
0.08583333343,47.10828781,
0.08749999851,47.93949127,
0.08916666359,47.48251724,
0.09083333611,47.43784332,
0.09250000119,46.63752365,
0.09416666627,47.30099869,
0.09583333135,47.34778595,
0.09749999642,46.6504364,
0.09916666895,47.87281799,
0.100833334,47.46136856,
0.1024999991,47.45513916,
0.1041666642,47.00007629,
0.1058333293,47.61761856,
0.1075000018,47.84866714,
0.1091666669,47.57449341,
0.1108333319,46.91068268,
0.112499997,47.10767746,
0.1141666621,47.67938995,
0.1158333346,47.15769196,
0.1174999997,47.33223343,
0.1191666648,47.86551285,
0.1208333299,47.25495529,
0.1224999949,47.31086731,
0.1241666749,47.06932449,
0.1258333325,47.53258896,
0.1274999976,47.20994186,
0.1291666627,47.72357178,
0.1308333278,47.10348511,
0.1325000077,47.04650879,
0.1341666728,47.29442978,
0.1358333379,47.83313751,
0.137500003,46.77606964,
0.1391666681,47.54206467,
0.1408333331,47.72919846,
0.1424999982,47.44952011,
0.1441666782,47.48639679,
0.1458333284,47.42879105,
0.1475000083,47.38811111,
0.1491666585,47.34923172,
0.1508333385,47.72334671,
0.1525000036,46.98311996,
0.1541666687,47.48809814,
0.1558333337,47.07445145,
0.1574999988,46.96546936,
0.1591666639,47.06591034,
0.1608333439,47.40829468,
0.162499994,47.20939636,
0.164166674,47.81446075,
0.1658333242,47.05966187,
0.1675000042,47.24489594,
0.1691666692,47.49498749,
0.1708333343,47.38951874,
0.1724999994,47.61791611,
0.1741666645,47.47674561,
0.1758333296,47.04254913,
0.1775000095,47.11460876,
0.1791666597,47.35421371,
0.1808333397,47.34535217,
0.1824999899,47.7506485,
0.1841666698,46.5235405,
0.1858333498,47.34760666,
0.1875,47.31059647,
0.18916668,47.38442612,
0.1908333302,47.17937088,
0.1925000101,47.06337738,
0.1941666752,47.48524475,
0.1958333403,46.64253616,
0.1975000054,47.26652145,
0.1991666704,47.10365677,
0.2008333355,47.44292068,
0.2025000155,46.57297134,
0.2041666657,47.61335754,
0.2058333457,47.1428299,
0.2074999958,47.45700836,
0.2091666758,47.4750824,
0.2108333409,47.35032272,
0.212500006,47.20497513,
0.214166671,46.91822815,
0.2158333361,47.03914261,
0.2175000012,47.07212448,
0.2191666812,46.8278923,
0.2208333313,47.54417801,
0.2225000113,47.62192154,
0.2241666615,47.72804642,
0.2258333415,47.65200806,
0.2275000066,47.51480103,
0.2291666716,47.069767,
0.2308333367,47.26565933,
0.2325000018,47.08551025,
0.2341666669,47.42897034,
0.2358333468,47.44630814,
0.237499997,47.30278397,
0.239166677,46.95964432,
0.2408333272,47.38796234,
0.2425000072,47.42924881,
0.2441666722,47.07084274,
0.2458333373,47.47868347,
0.2475000024,47.16021729,
0.2491666675,47.62643814,
0.2508333325,47.47554016,
0.2524999976,47.70379257,
0.2541666627,47.23691559,
0.2558333278,47.65208817,
0.2574999928,47.22402191,
0.2591666579,47.23888397,
0.2608333528,47.03751755,
0.2624999881,46.79125214,
0.264166683,46.92382813,
0.2658333182,47.72875977,
0.2675000131,47.44937897,
0.2691666484,46.57499695,
0.2708333433,47.2852211,
0.2725000083,47.54999924,
0.2741666734,47.01651382,
0.2758333385,47.12876129,
0.2775000036,47.16201401,
0.2791666687,46.67446899,
0.2808333337,47.53534698,
0.2824999988,47.1486969,
0.2841666937,47.17871094,
0.285833329,47.24390411,
0.287499994,47.58213806,
0.2891666591,47.20545959,
0.290833354,46.84250259,
0.2925000191,47.85201645,
0.2941666543,47.3908844,
0.2958333194,47.77711105,
0.2975000143,47.00370026,
0.2991666794,47.30970001,
0.3008333445,47.47441101,
0.3024999797,47.32369614,
0.3041666746,47.66487885,
0.3058333397,46.4335022,
0.3075000048,46.77054596,
0.3091666996,47.63298035,
0.3108333349,47.31160736,
0.3125,46.94057846,
0.3141666651,47.28370285,
0.31583336,47.38275528,
0.317500025,47.77951431,
0.3191666603,47.25896835,
0.3208333254,47.01340866,
0.3225000203,47.13721848,
0.3241666853,47.1505928,
0.3258333504,47.1333313,
0.3274999857,47.22729111,
0.3291666806,47.41120911,
0.3308333457,47.25088882,
0.3325000107,47.1353035,
0.3341666758,46.59709167,
0.3358333409,47.10907745,
0.337500006,47.51874161,
0.339166671,46.97380829,
0.3408333361,46.75070953,
0.342500031,47.51660919,
0.3441666663,47.39979553,
0.3458333313,47.04614639,
0.3474999964,47.04644394,
0.3491666913,47.1790657,
0.3508333564,47.26049042,
0.3524999917,47.69198227,
0.3541666567,47.02851486,
0.3558333516,46.62627411,
0.3575000167,47.23587418,
0.3591666818,47.03119278,
0.360833317,47.68052673,
0.3625000119,46.75099945,
0.364166677,47.23163986,
0.3658333421,47.1571312,
0.3675000072,47.74523163,
0.3691666722,47.27731705,
0.3708333373,47.07004547,
0.3725000024,47.30498123,
0.3741666675,47.02808762,
0.3758333623,47.48698807,
0.3774999976,47.53472519,
0.3791666627,47.15981674,
0.3808333278,46.98879623,
0.3825000226,47.61818314,
0.3841666877,48.19400406,
0.385833323,47.49188614,
0.3874999881,47.06496811,
0.389166683,46.95239639,
0.390833348,46.77510834,
0.3925000131,47.3335228,
0.3941666484,48.09567261,
0.3958333433,47.30448914,
0.3975000083,47.5192337,
0.3991666734,47.18493652,
0.4008333385,46.80888748,
0.4025000036,47.08654404,
0.4041666687,47.17445755,
0.4058333337,46.98892593,
0.4074999988,46.86857224,
0.4091666937,47.84912872,
0.410833329,47.63922882,
0.412499994,46.67444611,
0.4141666591,47.59718704,
0.415833354,47.77495956,
0.4175000191,47.70981216,
0.4191666543,47.19169998,
0.4208333194,47.28792572,
0.4225000143,47.23290634,
0.4241666794,46.4743309,
0.4258333445,47.61732864,
0.4274999797,47.41218185,
0.4291666746,46.26834106,
0.4308333397,46.76974487,
0.4325000048,46.79728699,
0.4341666996,47.5810051,
0.4358333349,47.81381989,
0.4375,47.29267502,
0.4391666651,47.38147354,
0.44083336,47.35773849,
0.442500025,46.96766663,
0.4441666603,46.78614426,
0.4458333254,47.37776566,
0.4475000203,47.11746979,
0.4491666853,47.11061478,
0.4508333504,47.55673599,
0.4524999857,47.44890213,
0.4541666806,47.60645294,
0.4558333457,47.67375183,
0.4575000107,47.05066299,
0.4591666758,47.10199738,
0.4608333409,47.36963654,
0.462500006,47.61278534,
0.464166671,47.77203369,
0.4658333361,47.64395523,
0.467500031,47.59732056,
0.4691666663,46.92751694,
0.4708333313,47.11515045,
0.4724999964,47.53752899,
0.4741666913,47.18054199,
0.4758333564,47.36081696,
0.4774999917,47.12491608,
0.4791666567,47.15980148,
0.4808333516,47.04046631,
0.4825000167,47.32624817,
0.4841666818,47.05157852,
0.485833317,47.29377747,
0.4875000119,47.20772552,
0.489166677,47.93031311,
0.4908333421,47.20286942,
0.4925000072,46.63976288,
0.4941666722,46.86856461,
0.4958333373,47.34649658,
0.4975000024,47.08564758,
0.4991666675,47.63660049,
0.5008333325,47.08259583,
0.5024999976,47.37207413,
0.5041666627,46.63143158,
0.5058333278,47.38712692,
0.5074999928,48.08771896,
0.5091666579,46.65639877,
0.510833323,46.77259827,
0.5124999881,47.90997696,
0.5141666532,47.35074234,
0.5158333182,47.06743622,
0.5175000429,46.79750443,
0.5191666484,47.11642075,
0.5208333135,47.48369217,
0.5224999785,46.76231003,
0.5241667032,47.06312561,
0.5258333683,46.8115654,
0.5274999738,46.86262894,
0.5291666389,47.07923889,
0.5308333635,47.61764908,
0.5325000286,46.89730835,
0.5341666341,46.44700241,
0.5358333588,47.38902664,
0.5375000238,47.17646027,
0.5391666889,47.6241684,
0.540833354,47.6311264,
0.5424999595,47.22743988,
0.5441666842,47.06021118,
0.5458333492,47.65174103,
0.5475000143,46.96509933,
0.5491666794,47.57588959,
0.5508333445,47.15855408,
0.5525000095,46.65407944,
0.5541666746,47.99500656,
0.5558333993,47.54385757,
0.5575000048,47.15053177,
0.5591666698,47.19010162,
0.5608333349,47.63615417,
0.5625,47.9011879,
0.5641667247,46.8813591,
0.5658333302,46.4296608,
0.5674999952,47.12091827,
0.5691667199,46.81007004,
0.5708333254,47.19433594,
0.5725000501,46.99275208,
0.5741666555,47.08277512,
0.5758333206,47.96540451,
0.5775000453,47.08430099,
0.5791666508,46.19830704,
0.5808333755,47.42752075,
0.5825000405,46.70932007,
0.584166646,47.77749252,
0.5858333707,47.16839981,
0.5874999762,47.50879669,
0.5891667008,46.86811829,
0.5908333659,47.10575867,
0.5924999714,47.60361862,
0.5941666961,47.44841003,
0.5958333611,46.81614304,
0.5975000262,47.49702454,
0.5991666913,46.51659775,
0.6008332968,46.93214035,
0.6025000215,47.11566544,
0.6041666865,46.63380432,
0.6058333516,46.77755356,
0.6075000167,47.12689209,
0.6091666818,47.17261887,
0.6108333468,47.39882278,
0.6125000119,47.19598389,
0.614166677,47.66510773,
0.6158333421,47.12360382,
0.6175000072,47.05544281,
0.6191666722,46.26769638,
0.6208333373,47.19570541,
0.622500062,47.45860672,
0.6241666675,46.74425125,
0.6258333325,46.90379715,
0.6274999976,47.3753891,
0.6291666627,47.16021729,
0.6308333874,47.07471848,
0.6324999928,47.7402153,
0.6341666579,47.62158966,
0.6358333826,47.06379318,
0.6374999881,47.0891037,
0.6391667128,47.54440308,
0.6408333182,47.20204926,
0.6424999833,47.16329956,
0.644166708,46.64353943,
0.6458333135,47.20790863,
0.6475000381,47.11438751,
0.6491667032,47.11732483,
0.6508333087,46.53159332,
0.6525000334,47.41196823,
0.6541666389,46.73809433,
0.6558333635,47.19721222,
0.6575000286,47.19876862,
0.6591666341,47.33955002,
0.6608333588,46.67913818,
0.6625000238,47.31347275,
0.6641666889,47.27302933,
0.665833354,47.35317993,
0.6674999595,47.82585526,
0.6691666842,47.24305344,
0.6708333492,47.17914963,
0.6725000143,47.44945526,
0.6741666794,47.27077866,
0.6758333445,47.24486542,
0.6775000095,47.20078278,
0.6791666746,47.22408676,
0.6808333993,46.79214096,
0.6825000048,46.86102676,
0.6841666698,46.85974121,
0.6858333349,46.56458282,
0.6875,47.06348038,
0.6891667247,48.04296112,
0.6908333302,46.49119186,
0.6924999952,47.23709106,
0.6941667199,46.95381546,
0.6958333254,47.4498291,
0.6975000501,47.24423599,
0.6991666555,47.05111313,
0.7008333206,47.09088135,
0.7025000453,47.18888855,
0.7041666508,47.00637817,
0.7058333755,46.82663727,
0.7075000405,46.82123566,
0.709166646,47.40869904,
0.7108333707,47.29076767,
0.7124999762,47.68257523,
0.7141667008,47.26356125,
0.7158333659,46.4809494,
0.7174999714,46.26779175,
0.7191666961,47.13750076,
0.7208333611,47.23912048,
0.7225000262,47.2644043,
0.7241666913,47.41482925,
0.7258332968,47.02724457,
0.7275000215,47.15116882,
0.7291666865,47.69923401,
0.7308333516,47.72392654,
0.7325000167,46.95147705,
0.7341666818,47.71891785,
0.7358333468,47.52586365,
0.7375000119,47.15241623,
0.739166677,46.48548889,
0.7408333421,46.75778198,
0.7425000072,46.44741821,
0.7441666722,47.22186279,
0.7458333373,47.72447205,
0.747500062,47.63770294,
0.7491666675,47.31401062,
0.7508333325,47.12522507,
0.7524999976,47.60526276,
0.7541666627,47.38435745,
0.7558333874,47.19939423,
0.7574999928,47.28993607,
0.7591666579,47.08610916,
0.7608333826,47.50559616,
0.7624999881,46.73604202,
0.7641667128,47.36265945,
0.7658333182,47.03055191,
0.7674999833,46.75710297,
0.769166708,47.01322937,
0.7708333135,47.2267189,
0.7725000381,47.8481369,
0.7741667032,47.45373917,
0.7758333087,46.90210342,
0.7775000334,47.45024109,
0.7791666389,47.34300232,
0.7808333635,47.09064102,
0.7825000286,47.17039108,
0.7841666341,47.03012085,
0.7858333588,47.26815414,
0.7875000238,46.82541275,
0.7891666889,46.54925156,
0.790833354,46.98760986,
0.7924999595,47.3181572,
0.7941666842,46.80813217,
0.7958333492,47.08704758,
0.7975000143,47.44754791,
0.7991666794,47.20683289,
0.8008333445,47.43547058,
0.8025000095,47.40243149,
0.8041666746,47.04119873,
0.8058333993,46.77053452,
0.8075000048,47.37371063,
0.8091666698,46.61174393,
0.8108333349,47.21595764,
0.8125,47.08203888,
0.8141667247,48.09127045,
0.8158333302,46.94015503,
0.8174999952,46.82084656,
0.8191667199,46.96273422,
0.8208333254,47.38210678,
0.8225000501,46.66910172,
0.8241666555,47.09564972,
0.8258333206,46.84243011,
0.8275000453,47.14578247,
0.8291666508,47.54264069,
0.8308333755,46.46771622,
0.8325000405,47.02401733,
0.834166646,47.59672165,
0.8358333707,47.23158264,
0.8374999762,47.51540375,
0.8391667008,47.2518425,
0.8408333659,47.44974899,
0.8424999714,47.26999283,
0.8441666961,47.42388916,
0.8458333611,46.58744049,
0.8475000262,46.8896637,
0.8491666913,47.04719925,
0.8508332968,47.38562012,
0.8525000215,47.50127411,
0.8541666865,46.79967499,
0.8558333516,47.01851273,
0.8575000167,46.9879303,
0.8591666818,46.7270813,
0.8608333468,47.29837418,
0.8625000119,46.80624771,
0.864166677,46.6354599,
0.8658333421,47.40864563,
0.8675000072,47.69939804,
0.8691666722,47.96861649,
0.8708333373,46.91183472,
0.872500062,47.09512329,
0.8741666675,46.72237778,
0.8758333325,47.35473251,
0.8774999976,47.22020721,
0.8791666627,47.53095245,
0.8808333874,47.23839569,
0.8824999928,47.28061295,
0.8841666579,47.28200531,
0.8858333826,46.98220444,
0.8874999881,46.35828781,
0.8891667128,46.60296249,
0.8908333182,47.17697906,
0.8924999833,47.50382996,
0.894166708,46.90569687,
0.8958333135,47.31074905,
0.8975000381,47.24259186,
0.8991667032,47.27276993,
0.9008333087,47.13008881,
0.9025000334,46.93406677,
0.9041666389,47.28217697,
0.9058333635,46.73330307,
0.9075000286,47.14764786,
0.9091666341,47.28069305,
0.9108333588,47.55023575,
0.9125000238,47.15996933,
0.9141666889,47.22142029,
0.915833354,47.25899124,
0.9174999595,46.85918427,
0.9191666842,47.07888031,
0.9208333492,46.63547134,
0.9225000143,46.48866272,
0.9241666794,47.3502655,
0.9258333445,47.84402847,
0.9275000095,46.81751251,
0.9291666746,47.0150032,
0.9308333993,47.35585403,
0.9325000048,47.20278931,
0.9341666698,46.62606812,
0.9358333349,47.43019104,
0.9375,46.81980133,
0.9391667247,47.15180969,
0.9408333302,46.72090912,
0.9424999952,47.18438339,
0.9441667199,47.265728,
0.9458333254,47.00649643,
0.9475000501,46.91864014,
0.9491666555,46.86917496,
0.9508333206,47.22610092,
0.9525000453,47.50084686,
0.9541666508,47.38651657,
0.9558333755,47.22878647,
0.9575000405,45.84139252,
0.959166646,47.42118073,
0.9608333707,47.22449875,
0.9624999762,47.25519562,
0.9641667008,46.7085762,
0.9658333659,47.9599762,
0.9674999714,46.8431282,
0.9691666961,46.99194717,
0.9708333611,46.7189064,
0.9725000262,46.85723877,
0.9741666913,46.99977875,
0.9758332968,46.61586761,
0.9775000215,46.81706619,
0.9791666865,47.23394012,
0.9808333516,47.42959976,
0.9825000167,47.28184128,
0.9841666818,46.55242157,
0.9858333468,47.21925735,
0.9875000119,47.08408356,
0.989166677,46.75628662,
0.9908333421,47.20687103,
0.9925000072,47.30360794,
0.9941666722,46.68331146,
0.9958333373,47.11962509,
0.997500062,47.35026169,
0.9991666675,47.16056442,
1.000833273,46.92394257,
1.002500057,47.3760643,
1.004166722,47.04087067,
1.005833387,47.81921005,
1.007500052,47.18593216,
1.009166598,47.47170258,
1.010833383,47.11976242,
1.012500048,47.27564621,
1.014166713,47.06121826,
1.015833378,46.98138809,
1.017500043,46.55394745,
1.019166708,47.1870079,
1.020833373,46.7244072,
1.022500038,47.15016937,
1.024166703,46.90324783,
1.025833368,47.45540237,
1.027500033,47.16090012,
1.029166698,46.76380539,
1.030833364,47.26667023,
1.032500029,47.09300232,
1.034166694,47.80545807,
1.035833359,47.21313477,
1.037500024,47.27365494,
1.039166689,47.69107056,
1.040833354,48.29485703,
1.042500019,48.46253204,
1.044166684,45.30913162,
1.045833349,42.65201187,
1.047500014,47.41884232,
1.049166679,44.35322571,
1.050833344,50.402771,
1.05250001,50.74066162,
1.054166675,53.66899872,
1.05583334,52.14364624,
1.057500005,54.39333344,
1.05916667,54.92054749,
1.060833335,56.51945496,
1.0625,57.67643738,
1.064166665,56.96746445,
1.06583333,61.17893982,
1.067499995,60.96266937,
1.06916666,62.61381531,
1.070833325,63.1677742,
1.07249999,64.24871826,
1.074166775,65.05386353,
1.07583344,65.97788239,
1.077499986,66.69355011,
1.079166651,67.7696991,
1.080833316,67.10368347,
1.0825001,68.78740692,
1.084166765,69.19154358,
1.085833311,70.04886627,
1.087499976,70.92957306,
1.089166641,72.70593262,
1.090833426,72.53633881,
1.092500091,72.56869507,
1.094166636,73.17383575,
1.095833302,74.01111603,
1.097499967,74.51587677,
1.099166751,75.91713715,
1.100833416,75.99188232,
1.102500081,76.07997131,
1.104166627,76.52333832,
1.105833292,77.38452148,
1.107500076,76.19954681,
1.109166741,77.72014618,
1.110833406,77.65801239,
1.112499952,78.36231995,
1.114166617,79.81655121,
1.115833402,80.24853516,
1.117500067,80.39779663,
1.119166732,81.02584839,
1.120833278,81.56125641,
1.122499943,81.72042084,
1.124166727,82.0383606,
1.125833392,82.57433319,
1.127500057,82.67350006,
1.129166722,83.00562286,
1.130833268,82.89495087,
1.132500052,84.66802216,
1.134166718,84.24163055,
1.135833383,84.77552032,
1.137500048,85.35932922,
1.139166594,84.86566925,
1.140833378,85.68983459,
1.142500043,86.18695831,
1.144166708,86.68651581,
1.145833373,87.5056076,
1.147499919,87.08909607,
1.149166703,87.68282318,
1.150833368,88.53067017,
1.152500033,88.21522522,
1.154166698,88.88983917,
1.155833364,89.0672226,
1.157500029,89.29902649,
1.159166694,88.82692719,
1.160833359,89.44094086,
1.162500024,90.78956604,
1.164166689,90.72497559,
1.165833354,91.12143707,
1.167500019,90.81959534,
1.169166684,91.76335907,
1.170833349,92.35556793,
1.172500014,92.43065643,
1.174166799,91.23049164,
1.175833344,92.74747467,
1.17750001,94.0520401,
1.179166675,92.44142151,
1.18083334,93.7400589,
1.182500124,93.19706726,
1.18416667,93.2490921,
1.185833335,94.42666626,
1.1875,94.43817902,
1.189166665,94.94184113,
1.190833449,95.43491364,
1.192499995,95.55094147,
1.19416666,95.89391327,
1.195833325,96.04216766,
1.19749999,96.56059265,
1.199166775,96.66027069,
1.20083344,96.56661224,
1.202499986,97.20516205,
1.204166651,97.06259155,
1.205833316,97.65650177,
1.2075001,96.97498322,
1.209166765,97.4105072,
1.210833311,98.61054993,
1.212499976,97.49017334,
1.214166641,97.4340744,
1.215833426,98.40995026,
1.217500091,98.5029068,
1.219166636,99.57009888,
1.220833302,98.8344574,
1.222499967,99.60956573,
1.224166751,99.62553406,
1.225833416,100.5632095,
1.227500081,100.4478149,
1.229166627,99.80725098,
1.230833292,101.4160995,
1.232500076,101.2528839,
1.234166741,99.90561676,
1.235833406,101.3921661,
1.237499952,100.9185867,
1.239166617,101.193985,
1.240833402,101.8120117,
1.242500067,102.0317917,
1.244166732,102.1546021,
1.245833278,102.3264465,
1.247499943,102.7756348,
1.249166727,102.3642654,
1.250833392,103.5768661,
1.252500057,103.2876968,
1.254166722,102.5464554,
1.255833268,102.9112854,
1.257500052,103.8613434,
1.259166718,103.5386963,
1.260833383,103.0830231,
1.262500048,104.0394592,
1.264166594,104.2755127,
1.265833378,103.7058563,
1.267500043,103.8589706,
1.269166708,104.4342804,
1.270833373,104.2835617,
1.272499919,104.9003525,
1.274166703,105.2625275,
1.275833368,104.6146927,
1.277500033,105.6278229,
1.279166698,106.0005722,
1.280833364,106.2380295,
1.282500029,105.3900223,
1.284166694,105.9063339,
1.285833359,106.9636917,
1.287500024,106.9000549,
1.289166689,105.7060547,
1.290833354,107.1945496,
1.292500019,106.5721436,
1.294166684,107.2746048,
1.295833349,107.0649643,
1.297500014,107.539566,
1.299166799,107.1935043,
1.300833344,107.2189484,
1.30250001,107.5194778,
1.304166675,108.3873291,
1.30583334,108.1224289,
1.307500124,107.8837967,
1.30916667,107.22995,
1.310833335,108.8181458,
1.3125,109.3199234,
1.314166665,108.5019913,
1.315833449,109.5498581,
1.317499995,108.528862,
1.31916666,108.3515167,
1.320833325,109.2531738,
1.32249999,109.8000641,
1.324166775,109.8089142,
1.32583344,109.1125488,
1.327499986,110.7570419,
1.329166651,111.0988464,
1.330833316,109.6055069,
1.3325001,110.4010696,
1.334166765,109.7697144,
1.335833311,110.845726,
1.337499976,110.5904541,
1.339166641,110.1448898,
1.340833426,111.1262589,
1.342500091,111.2013245,
1.344166636,110.966568,
1.345833302,110.3241196,
1.347499967,110.9902496,
1.349166751,111.1379929,
1.350833416,111.8596802,
1.352500081,112.2289886,
1.354166627,112.0709152,
1.355833292,112.4857864,
1.357500076,113.0415039,
1.359166741,112.2668533,
1.360833406,112.3280869,
1.362499952,111.6441116,
1.364166617,112.0406113,
1.365833402,112.4327698,
1.367500067,112.9393616,
1.369166732,112.9626999,
1.370833278,112.3713608,
1.372499943,112.421669,
1.374166727,112.4622192,
1.375833392,113.8267975,
1.377500057,113.5080185,
1.379166722,114.0254135,
1.380833268,114.1488953,
1.382500052,113.8038864,
1.384166718,113.9791794,
1.385833383,113.3336105,
1.387500048,114.5871124,
1.389166594,114.560051,
1.390833378,114.2126999,
1.392500043,113.9721527,
1.394166708,113.9206009,
1.395833373,114.7225342,
1.397499919,115.4306259,
1.399166703,115.4006271,
1.400833368,114.8948669,
1.402500033,115.2171097,
1.404166698,114.395401,
1.405833364,115.4947586,
1.407500029,115.7725525,
1.409166694,116.3166351,
1.410833359,116.3092499,
1.412500024,115.8862228,
1.414166689,116.0024567,
1.415833354,116.3285828,
1.417500019,116.0758972,
1.419166684,116.7080765,
1.420833349,115.8165436,
1.422500014,116.9985352,
1.424166799,116.8165131,
1.425833344,116.2544174,
1.42750001,117.0776672,
1.429166675,117.4879532,
1.43083334,118.1485291,
1.432500124,117.7763367,
1.43416667,117.6016769,
1.435833335,117.8018723,
1.4375,117.0524445,
1.439166665,117.4988556,
1.440833449,116.7922058,
1.442499995,117.8623123,
1.44416666,117.3020554,
1.445833325,117.7045212,
1.44749999,118.7382736,
1.449166775,117.2857971,
1.45083344,118.9313354,
1.452499986,117.6389236,
1.454166651,118.7526855,
1.455833316,118.1902008,
1.4575001,119.3794556,
1.459166765,119.0123444,
1.460833311,118.3474045,
1.462499976,118.5352631,
1.464166641,119.1843109,
1.465833426,119.8050613,
1.467500091,118.2487488,
1.469166636,119.479599,
1.470833302,119.330307,
1.472499967,119.5128555,
1.474166751,119.9585342,
1.475833416,120.2988052,
1.477500081,120.0178604,
1.479166627,120.3364792,
1.480833292,119.3315964,
1.482500076,120.5385056,
1.484166741,120.6099319,
1.485833406,120.1643295,
1.487499952,120.1128922,
1.489166617,120.1737595,
1.490833402,119.9649887,
1.492500067,119.8973312,
1.494166732,121.4806519,
1.495833278,120.0337067,
1.497499943,120.3588409,
1.499166727,120.5888901,
1.500833392,120.8312378,
1.502500057,121.1654663,
1.504166722,120.9278259,
1.505833268,120.9908218,
1.507500052,121.2347031,
1.509166718,121.5336151,
1.510833383,121.7490768,
1.512500048,121.3015747,
1.514166594,120.5542145,
1.515833378,122.0289459,
1.517500043,121.7211151,
1.519166708,122.7185059,
1.520833373,121.5524368,
1.522499919,122.7181396,
1.524166703,122.2399445,
1.525833368,121.6155777,
1.527500033,121.8946457,
1.529166698,123.2314529,
1.530833364,122.7432251,
1.532500029,122.8012924,
1.534166694,123.3148041,
1.535833359,122.6113281,
1.537500024,122.9327011,
1.539166689,122.2166061,
1.540833354,123.7216187,
1.542500019,123.4748917,
1.544166684,123.3143692,
1.545833349,122.6388397,
1.547500014,122.778656,
1.549166799,123.5139542,
1.550833344,122.8710251,
1.55250001,122.5407486,
1.554166675,122.7741928,
1.55583334,123.4791718,
1.557500124,123.0268784,
1.55916667,124.9269028,
1.560833335,123.9574356,
1.5625,123.6515579,
1.564166665,123.670105,
1.565833449,123.8539963,
1.567499995,123.6628342,
1.56916666,123.179039,
1.570833325,123.3131409,
1.57249999,123.9554062,
1.574166775,124.7400665,
1.57583344,123.8288116,
1.577499986,123.8906937,
1.579166651,124.0407486,
1.580833316,124.2640152,
1.5825001,124.5657043,
1.584166765,125.0982437,
1.585833311,125.0797653,
1.587499976,123.5558243,
1.589166641,124.1469955,
1.590833426,123.9653931,
1.592500091,124.3607025,
1.594166636,124.7727737,
1.595833302,124.9894257,
1.597499967,125.761795,
1.599166751,124.3680801,
1.600833416,125.1430817,
1.602500081,124.3921432,
1.604166627,124.5909424,
1.605833292,125.6443558,
1.607500076,124.5936203,
1.609166741,125.4137421,
1.610833406,125.2107925,
1.612499952,125.8720169,
1.614166617,125.3258743,
1.615833402,125.9701385,
1.617500067,125.5737228,
1.619166732,125.8763809,
1.620833278,125.4362793,
1.622499943,125.028862,
1.624166727,126.0902863,
1.625833392,125.796524,
1.627500057,126.7464752,
1.629166722,124.8275146,
1.630833268,126.3578262,
1.632500052,127.5907898,
1.634166718,125.4900284,
1.635833383,126.7078552,
1.637500048,125.5838013,
1.639166594,125.6036911,
1.640833378,126.6025314,
1.642500043,126.7110519,
1.644166708,126.9654007,
1.645833373,126.4610443,
1.647499919,126.7107315,
1.649166703,126.7225723,
1.650833368,127.1391983,
1.652500033,126.6273727,
1.654166698,126.3147278,
1.655833364,127.306282,
1.657500029,126.5636826,
1.659166694,126.1067352,
1.660833359,126.5554733,
1.662500024,126.2596664,
1.664166689,128.1283569,
1.665833354,126.4276657,
1.667500019,127.4580688,
1.669166684,127.6319656,
1.670833349,127.2243881,
1.672500014,127.0683289,
1.674166799,127.5927124,
1.675833344,126.3981018,
1.67750001,127.8974228,
1.679166675,128.3301544,
1.68083334,128.102356,
1.682500124,128.5012054,
1.68416667,127.5018463,
1.685833335,127.8928833,
1.6875,127.8756561,
1.689166665,128.3004303,
1.690833449,128.37883,
1.692499995,127.5667114,
1.69416666,128.563446,
1.695833325,128.521286,
1.69749999,128.4405365,
1.699166775,128.2352142,
1.70083344,127.5120239,
1.702499986,127.8845825,
1.704166651,127.5751419,
1.705833316,127.230629,
1.7075001,128.7740173,
1.709166765,129.0312653,
1.710833311,128.3936005,
1.712499976,128.6499023,
1.714166641,128.3901215,
1.715833426,128.703125,
1.717500091,128.5595093,
1.719166636,128.6960754,
1.720833302,129.5458832,
1.722499967,128.3505707,
1.724166751,129.0040894,
1.725833416,129.0993042,
1.727500081,129.6046753,
1.729166627,129.5055389,
1.730833292,129.1042938,
1.732500076,129.1421051,
1.734166741,129.7153931,
1.735833406,129.5400391,
1.737499952,128.846283,
1.739166617,129.633667,
1.740833402,128.7511444,
1.742500067,129.7336884,
1.744166732,129.2364197,
1.745833278,129.8907471,
1.747499943,129.9324493,
1.749166727,129.4626312,
1.750833392,129.3323822,
1.752500057,129.0695953,
1.754166722,129.6515503,
1.755833268,129.282196,
1.757500052,130.9465027,
1.759166718,129.3337708,
1.760833383,130.9498291,
1.762500048,130.449585,
1.764166594,129.2928009,
1.765833378,129.6464844,
1.767500043,130.1041565,
1.769166708,130.3119202,
1.770833373,129.888855,
1.772499919,130.7808838,
1.774166703,130.7080841,
1.775833368,129.8582611,
1.777500033,130.0970306,
1.779166698,128.8345032,
1.780833364,129.432724,
1.782500029,130.1409149,
1.784166694,129.8742371,
1.785833359,130.0349579,
1.787500024,130.8394928,
1.789166689,130.6358795,
1.790833354,130.0329437,
1.792500019,131.1488495,
1.794166684,131.0336304,
1.795833349,129.461441,
1.797500014,131.7749176,
1.799166799,130.0639801,
1.800833344,130.5542297,
1.80250001,130.6716614,
1.804166675,130.8571014,
1.80583334,129.9948883,
1.807500124,130.8583679,
1.80916667,132.0124664,
1.810833335,131.0863647,
1.8125,131.7901154,
1.814166665,130.0821686,
1.815833449,130.0470276,
1.817499995,130.772583,
1.81916666,131.194931,
1.820833325,131.3313446,
1.82249999,132.0633087,
1.824166775,132.1624298,
1.82583344,129.9687958,
1.827499986,131.4145203,
1.829166651,132.2137756,
1.830833316,131.3986053,
1.8325001,131.2767639,
1.834166765,131.526474,
1.835833311,131.8631897,
1.837499976,132.7813416,
1.839166641,132.0098877,
1.840833426,132.8771362,
1.842500091,131.8184052,
1.844166636,131.5419159,
1.845833302,130.3374329,
1.847499967,130.6433105,
1.849166751,131.3692322,
1.850833416,131.2342377,
1.852500081,131.1681213,
1.854166627,131.4713898,
1.855833292,131.6929321,
1.857500076,131.6078949,
1.859166741,132.3816681,
1.860833406,131.7093048,
1.862499952,131.4255981,
1.864166617,132.5555725,
1.865833402,131.8710632,
1.867500067,131.7381897,
1.869166732,133.2340851,
1.870833278,131.7881775,
1.872499943,131.8879547,
1.874166727,133.0930023,
1.875833392,132.6075134,
1.877500057,133.1252289,
1.879166722,133.5041656,
1.880833268,132.1878967,
1.882500052,131.7203674,
1.884166718,132.2868958,
1.885833383,132.3903351,
1.887500048,131.5401459,
1.889166594,133.0879211,
1.890833378,132.6585693,
1.892500043,132.8233337,
1.894166708,132.6841431,
1.895833373,132.759964,
1.897499919,132.404007,
1.899166703,133.376236,
1.900833368,133.3685913,
1.902500033,133.5113678,
1.904166698,133.844635,
1.905833364,133.4550629,
1.907500029,133.7844086,
1.909166694,133.6289673,
1.910833359,133.0419312,
1.912500024,133.9358368,
1.914166689,132.6148376,
1.915833354,133.6246338,
1.917500019,133.1761475,
1.919166684,133.9919586,
1.920833349,133.2663422,
1.922500014,133.8883514,
1.924166799,133.1054535,
1.925833344,133.428833,
1.92750001,134.3089752,
1.929166675,132.8522797,
1.93083334,134.8425293,
1.932500124,132.6138,
1.93416667,134.7355804,
1.935833335,132.9199982,
1.9375,133.8937683,
1.939166665,133.4968567,
1.940833449,134.3513489,
1.942499995,134.595459,
1.94416666,133.9364471,
1.945833325,134.5393219,
1.94749999,133.366333,
1.949166775,134.8647614,
1.95083344,133.2023773,
1.952499986,133.1854248,
1.954166651,135.5566406,
1.955833316,133.4387665,
1.9575001,133.5439148,
1.959166765,133.6812592,
1.960833311,133.4351959,
1.962499976,133.4693604,
1.964166641,133.6015472,
1.965833426,133.9076691,
1.967500091,133.9838867,
1.969166636,134.5001831,
1.970833302,134.4171448,
1.972499967,134.2804718,
1.974166751,134.1946716,
1.975833416,135.1607208,
1.977500081,133.8594971,
1.979166627,134.7033844,
1.980833292,134.5523834,
1.982500076,133.9232025,
1.984166741,135.7484894,
1.985833406,134.6627808,
1.987499952,134.1093445,
1.989166617,134.9304962,
1.990833402,134.9341888,
1.992500067,135.6957245,
1.994166732,135.0967255,
1.995833278,134.421402,
1.997499943,134.4088287,
1.999166727,134.8425751,
2.000833273,135.3193207,
2.002500057,135.0478973,
2.004166603,134.708725,
2.005833387,135.627182,
2.007500172,135.2535248,
2.009166718,135.1919556,
2.010833263,134.7025757,
2.012500048,134.8647919,
2.014166594,134.9496155,
2.015833378,134.7828522,
2.017500162,135.3663788,
2.019166708,135.4245758,
2.020833254,135.713974,
2.022500038,136.7954865,
2.024166822,136.6916962,
2.025833368,135.8860016,
2.027499914,135.6139984,
2.029166698,135.4831696,
2.030833244,136.5244751,
2.032500029,135.2610016,
2.034166813,136.0979309,
2.035833359,136.5198975,
2.037499905,136.5611725,
2.039166689,135.5377502,
2.040833473,135.6102142,
2.042500019,135.650589,
2.044166803,135.6996155,
2.045833349,135.8079529,
2.047499895,136.2086182,
2.049166679,134.9866638,
2.050833464,135.970932,
2.05250001,136.3197479,
2.054166555,135.8232117,
2.05583334,134.5830231,
2.057500124,135.2308197,
2.05916667,136.6325226,
2.060833454,136.1997528,
2.0625,135.6850739,
2.064166546,136.9066772,
2.06583333,136.1417236,
2.067500114,136.6997375,
2.06916666,136.7349243,
2.070833445,136.6507721,
2.07249999,135.8960876,
2.074166775,135.9637604,
2.075833321,135.0775757,
2.077500105,136.0413666,
2.079166651,135.961319,
2.080833197,137.5472107,
2.082499981,136.2366638,
2.084166765,135.4034729,
2.085833311,136.0123596,
2.087500095,136.9695129,
2.089166641,137.1864166,
2.090833426,135.5188141,
2.092499971,136.4335175,
2.094166756,136.5830078,
2.095833302,136.802475,
2.097500086,136.5080566,
2.099166632,136.8109589,
2.100833416,136.0816803,
2.102499962,136.2766724,
2.104166746,135.6572418,
2.105833292,136.3140411,
2.107500076,136.3083344,
2.109166622,136.496933,
2.110833406,137.9442291,
2.112499952,136.7483368,
2.114166737,137.3562469,
2.115833521,137.8785706,
2.117500067,135.7799225,
2.119166613,136.5382538,
2.120833397,135.5484161,
2.122499943,137.3256378,
2.124166727,136.3707123,
2.125833273,135.7890625,
2.127500057,136.6870117,
2.129166603,137.2457733,
2.130833387,137.137619,
2.132500172,136.1766205,
2.134166718,136.5890961,
2.135833502,136.6947937,
2.137500048,137.4161987,
2.139166832,137.4782104,
2.140833378,137.0977936,
2.142500162,136.7653198,
2.144166708,136.7386322,
2.145833254,137.3370819,
2.147500038,137.2471313,
2.149166584,137.6134644,
2.150833368,136.8390808,
2.152500153,136.6322937,
2.154166698,137.1393738,
2.155833483,135.8325653,
2.157500029,136.907608,
2.159166813,137.936615,
2.160833597,136.7064667,
2.162499905,137.3558502,
2.164166689,137.2491913,
2.165833235,136.8269501,
2.167500019,136.4841156,
2.169166803,138.5656586,
2.170833349,137.0791321,
2.172500134,136.9782867,
2.174166679,137.2079163,
2.175833464,138.6389618,
2.177500248,137.1949615,
2.179166555,137.4025879,
2.18083334,138.6907806,
2.182499886,138.9216309,
2.18416667,137.4252167,
2.185833454,137.8665619,
2.1875,138.1071777,
2.189166784,137.2276917,
2.19083333,136.7776947,
2.192500114,138.9524078,
2.194166899,138.0316925,
2.195833445,137.9738312,
2.19749999,136.9492493,
2.199166536,137.5750122,
2.200833321,137.9803772,
2.202500105,137.796814,
2.204166651,137.2192993,
2.205833435,138.7586212,
2.207499981,137.6582794,
2.209166765,137.3611908,
2.210833549,138.1889801,
2.212500095,138.3219604,
2.21416688,139.5404358,
2.215833187,137.3791199,
2.217499971,138.1864624,
2.219166756,138.0675201,
2.220833302,138.4687958,
2.222500086,137.9981232,
2.224166632,137.728775,
2.225833416,139.2578735,
2.2275002,138.3282471,
2.229166746,137.9620209,
2.23083353,138.4131012,
2.232499838,138.4016724,
2.234166622,138.4841919,
2.235833406,139.4350739,
2.237499952,139.2135315,
2.239166737,138.71521,
2.240833282,137.9474335,
2.242500067,138.3160553,
2.244166851,138.5207977,
2.245833397,138.2762451,
2.247500181,138.6446075,
2.249166727,139.0688171,
2.250833273,139.1589203,
2.252500057,138.1339722,
2.254166603,138.622467,
2.255833387,138.0790863,
2.257499933,139.8700714,
2.259166718,139.2529602,
2.260833502,138.4845581,
2.262500048,138.5494843,
2.264166832,139.0732117,
2.265833378,138.1998444,
2.267500162,139.1004028,
2.269166708,139.5763397,
2.270833254,139.6088867,
2.272500038,138.6696625,
2.274166584,140.058197,
2.275833368,138.3008881,
2.277500153,136.9992218,
2.279166698,138.7822418,
2.280833483,138.319397,
2.282500029,139.7068481,
2.284166813,139.6683655,
2.285833597,139.4002533,
2.287499905,138.5276489,
2.289166689,139.0377808,
2.290833235,139.1979828,
2.292500019,138.6366882,
2.294166803,139.0063477,
2.295833349,139.3914185,
2.297500134,139.5305328,
2.299166679,138.02565,
2.300833464,138.4587097,
2.302500248,139.2058716,
2.304166555,139.1102295,
2.30583334,139.049469,
2.307499886,139.3716736,
2.30916667,139.2205658,
2.310833454,139.3019104,
2.3125,139.8514404,
2.314166784,139.1295624,
2.31583333,140.3525543,
2.317500114,138.9470825,
2.319166899,139.7559357,
2.320833445,138.8774109,
2.32249999,140.1155853,
2.324166536,139.3688354,
2.325833321,139.7731018,
2.327500105,139.2390747,
2.329166651,139.4266052,
2.330833435,140.1576843,
2.332499981,139.2977448,
2.334166765,138.2661591,
2.335833549,139.8753052,
2.337500095,139.2221375,
2.33916688,139.5419617,
2.340833187,139.0859222,
2.342499971,138.8788147,
2.344166756,139.0522461,
2.345833302,139.3057098,
2.347500086,138.772995,
2.349166632,139.2387085,
2.350833416,139.9411469,
2.3525002,139.9279175,
2.354166746,140.3596344,
2.35583353,139.8010406,
2.357499838,139.2865448,
2.359166622,138.6484375,
2.360833406,140.3199921,
2.362499952,140.1777649,
2.364166737,139.7126465,
2.365833282,139.7026062,
2.367500067,140.3025055,
2.369166851,138.1864624,
2.370833397,139.5545044,
2.372500181,140.3412018,
2.374166727,139.9024811,
2.375833273,139.544632,
2.377500057,139.0515747,
2.379166603,139.708786,
2.380833387,139.2488251,
2.382499933,141.0190277,
2.384166718,140.0350037,
2.385833502,140.0027618,
2.387500048,140.1566772,
2.389166832,141.4481964,
2.390833378,140.6798553,
2.392500162,140.0235901,
2.394166708,140.9112244,
2.395833254,139.5895538,
2.397500038,140.9153748,
2.399166584,139.0382996,
2.400833368,140.1073608,
2.402500153,140.3258667,
2.404166698,140.5222321,
2.405833483,140.2280731,
2.407500029,139.5737305,
2.409166813,140.084259,
2.410833597,140.1281738,
2.412499905,141.1260834,
2.414166689,139.8878174,
2.415833235,140.3779602,
2.417500019,139.1475067,
2.419166803,140.6878967,
2.420833349,139.9910278,
2.422500134,140.4255676,
2.424166679,141.7873535,
2.425833464,141.1446991,
2.427500248,140.7512665,
2.429166555,140.9598999,
2.43083334,140.1268921,
2.432499886,140.9562378,
2.43416667,140.4100647,
2.435833454,139.7957306,
2.4375,140.5911713,
2.439166784,140.562851,
2.44083333,139.2443237,
2.442500114,139.9916229,
2.444166899,141.6146698,
2.445833445,141.4787598,
2.44749999,141.3784943,
2.449166536,140.7458801,
2.450833321,140.1484833,
2.452500105,141.9159698,
2.454166651,140.9837799,
2.455833435,140.7398987,
2.457499981,141.7373352,
2.459166765,141.6147919,
2.460833549,141.3804932,
2.462500095,141.2706757,
2.46416688,141.4138336,
2.465833187,141.8721924,
2.467499971,141.2801666,
2.469166756,140.6512909,
2.470833302,140.9399567,
2.472500086,140.2992859,
2.474166632,141.0312042,
2.475833416,140.4634705,
2.4775002,140.9929199,
2.479166746,139.9274292,
2.48083353,140.6240692,
2.482499838,141.3841248,
2.484166622,140.4110107,
2.485833406,141.4459991,
2.487499952,140.5736847,
2.489166737,141.5527649,
2.490833282,141.7276611,
2.492500067,141.332077,
2.494166851,140.691391,
2.495833397,140.040802,
2.497500181,139.7666626,
2.499166727,140.6335297,
2.500833273,141.698822,
2.502500057,141.9884491,
2.504166603,139.4460297,
2.505833387,140.5824432,
2.507499933,140.4636993,
2.509166718,141.9621582,
2.510833502,141.0003204,
2.512500048,141.4378357,
2.514166832,141.5647888,
2.515833378,142.0196838,
2.517500162,141.8339539,
2.519166708,140.8604736,
2.520833254,141.4308472,
2.522500038,141.5383606,
2.524166584,140.8336487,
2.525833368,142.2679138,
2.527500153,142.165451,
2.529166698,141.3247681,
2.530833483,140.7317963,
2.532500029,140.9753876,
2.534166813,141.5908508,
2.535833597,141.1905212,
2.537499905,141.0462646,
2.539166689,142.0588989,
2.540833235,141.6042023,
2.542500019,141.6318512,
2.544166803,141.415741,
2.545833349,141.2077026,
2.547500134,141.2458191,
2.549166679,140.5041809,
2.550833464,140.5428619,
2.552500248,141.8697052,
2.554166555,142.4592438,
2.55583334,141.1678162,
2.557499886,141.248291,
2.55916667,141.193222,
2.560833454,141.3939819,
2.5625,142.7296143,
2.564166784,141.902359,
2.56583333,141.2279205,
2.567500114,141.327652,
2.569166899,142.5977173,
2.570833445,142.439682,
2.57249999,142.0188904,
2.574166536,142.0379028,
2.575833321,140.9281616,
2.577500105,141.6324005,
2.579166651,141.0993958,
2.580833435,142.2614136,
2.582499981,142.4715729,
2.584166765,141.8150177,
2.585833549,141.2754822,
2.587500095,143.0527344,
2.58916688,141.2184448,
2.590833187,142.1295776,
2.592499971,143.1038818,
2.594166756,141.8769989,
2.595833302,141.5170746,
2.597500086,141.4112701,
2.599166632,141.8137054,
2.600833416,142.6306152,
2.6025002,142.2690582,
2.604166746,142.2402802,
2.60583353,141.0084686,
2.607499838,140.7445221,
2.609166622,141.8342438,
2.610833406,143.1517181,
2.612499952,141.8832092,
2.614166737,141.4074554,
2.615833282,140.2156982,
2.617500067,142.018219,
2.619166851,140.9088745,
2.620833397,142.5282593,
2.622500181,142.2590179,
2.624166727,142.3478241,
2.625833273,142.4449615,
2.627500057,143.5253296,
2.629166603,140.9155426,
2.630833387,141.5275421,
2.632499933,142.1294403,
2.634166718,141.7870483,
2.635833502,142.2168579,
2.637500048,141.686142,
2.639166832,142.4614258,
2.640833378,142.9051208,
2.642500162,141.9993439,
2.644166708,141.765976,
2.645833254,142.8307648,
2.647500038,141.5828857,
2.649166584,143.4658356,
2.650833368,141.9519196,
2.652500153,143.907486,
2.654166698,142.364151,
2.655833483,143.068222,
2.657500029,140.9646454,
2.659166813,141.3117828,
2.660833597,141.7833557,
2.662499905,142.2033844,
2.664166689,143.506424,
2.665833235,140.9837494,
2.667500019,142.2360077,
2.669166803,142.9588928,
2.670833349,142.2813721,
2.672500134,142.1739807,
2.674166679,142.7754211,
2.675833464,142.5821381,
2.677500248,142.913559,
2.679166555,143.4438629,
2.68083334,142.6197662,
2.682499886,142.7602997,
2.68416667,141.7182312,
2.685833454,142.4568176,
2.6875,143.1311188,
2.689166784,142.7943573,
2.69083333,143.4490662,
2.692500114,142.6611938,
2.694166899,141.5222626,
2.695833445,143.0870667,
2.69749999,141.3449554,
2.699166536,142.1440887,
2.700833321,142.6676788,
2.702500105,142.6743469,
2.704166651,141.7439117,
2.705833435,143.4626923,
2.707499981,142.4419403,
2.709166765,143.5856323,
2.710833549,141.7821198,
2.712500095,142.6177673,
2.71416688,142.2368927,
2.715833187,141.7942352,
2.717499971,143.8762817,
2.719166756,142.8844757,
2.720833302,142.4876709,
2.722500086,143.5145569,
2.724166632,141.89711,
2.725833416,142.1881714,
2.7275002,142.3427734,
2.729166746,143.0775757,
2.73083353,143.4883423,
2.732499838,143.4792023,
2.734166622,142.9832001,
2.735833406,142.8798828,
2.737499952,142.3179779,
2.739166737,143.286377,
2.740833282,141.9133606,
2.742500067,141.8168488,
2.744166851,142.7050171,
2.745833397,143.7858887,
2.747500181,143.445755,
2.749166727,142.9592743,
2.750833273,143.1903229,
2.752500057,143.0703125,
2.754166603,142.500412,
2.755833387,143.3336792,
2.757499933,142.4809113,
2.759166718,142.1589813,
2.760833502,144.0153503,
2.762500048,142.8723755,
2.764166832,142.8235931,
2.765833378,142.3540497,
2.767500162,143.4202271,
2.769166708,142.5604858,
2.770833254,142.7760773,
2.772500038,142.4581757,
2.774166584,141.1670227,
2.775833368,143.4050751,
2.777500153,142.002594,
2.779166698,143.1062012,
2.780833483,142.6727448,
2.782500029,142.623291,
2.784166813,142.9721375,
2.785833597,143.4638824,
2.787499905,143.1952209,
2.789166689,143.3161469,
2.790833235,143.8819733,
2.792500019,143.005127,
2.794166803,143.2106476,
2.795833349,142.6987305,
2.797500134,142.915329,
2.799166679,143.4420929,
2.800833464,143.1459198,
2.802500248,143.2591553,
2.804166555,142.5379181,
2.80583334,142.4218445,
2.807499886,142.8037262,
2.80916667,142.1844177,
2.810833454,143.7140503,
2.8125,143.9046936,
2.814166784,143.8285522,
2.81583333,144.3477783,
2.817500114,142.4169769,
2.819166899,144.3910522,
2.820833445,143.2250519,
2.82249999,143.4879913,
2.824166536,143.8999329,
2.825833321,143.3697052,
2.827500105,144.1835938,
2.829166651,143.8029022,
2.830833435,142.3310852,
2.832499981,143.901474,
2.834166765,142.6843719,
2.835833549,143.1094208,
2.837500095,142.4142914,
2.83916688,143.3072815,
2.840833187,144.6192017,
2.842499971,143.7735596,
2.844166756,144.7270508,
2.845833302,142.3656006,
2.847500086,143.2568207,
2.849166632,142.9129333,
2.850833416,143.371994,
2.8525002,142.194397,
2.854166746,142.6817017,
2.85583353,143.8642578,
2.857499838,143.7899323,
2.859166622,144.0409851,
2.860833406,144.1956329,
2.862499952,144.214386,
2.864166737,143.4810944,
2.865833282,143.7223053,
2.867500067,142.8323364,
2.869166851,144.3877716,
2.870833397,142.7793579,
2.872500181,144.1408081,
2.874166727,143.2174225,
2.875833273,144.1206207,
2.877500057,142.5482941,
2.879166603,142.8009491,
2.880833387,144.0949402,
2.882499933,144.6308594,
2.884166718,143.3294525,
2.885833502,142.579895,
2.887500048,143.5023804,
2.889166832,143.4732971,
2.890833378,144.33255,
2.892500162,143.306839,
2.894166708,142.9885254,
2.895833254,144.4568024,
2.897500038,143.9450226,
2.899166584,144.1536713,
2.900833368,143.92276,
2.902500153,144.6151733,
2.904166698,143.820282,
2.905833483,144.1222076,
2.907500029,144.4445648,
2.909166813,143.4437714,
2.910833597,143.2035522,
2.912499905,144.0740204,
2.914166689,143.8711395,
2.915833235,143.6519165,
2.917500019,142.6591339,
2.919166803,144.4017181,
2.920833349,143.9734955,
2.922500134,143.4119568,
2.924166679,143.5445862,
2.925833464,144.495163,
2.927500248,144.4401093,
2.929166555,144.0750885,
2.93083334,143.4806976,
2.932499886,143.3312988,
2.93416667,143.7094727,
2.935833454,143.3230286,
2.9375,144.452652,
2.939166784,144.2376099,
2.94083333,143.8200226,
2.942500114,144.4364624,
2.944166899,144.0905762,
2.945833445,144.7017975,
2.94749999,143.6687469,
2.949166536,143.1867371,
2.950833321,144.5884247,
2.952500105,142.5984802,
2.954166651,143.2623901,
2.955833435,143.3023071,
2.957499981,144.7934418,
2.959166765,143.8338928,
2.960833549,144.6773987,
2.962500095,143.5273132,
2.96416688,145.4617462,
2.965833187,143.8343964,
2.967499971,143.4762878,
2.969166756,144.3755646,
2.970833302,143.8618774,
2.972500086,143.0239258,
2.974166632,144.9321594,
2.975833416,143.7938385,
2.9775002,144.866684,
2.979166746,145.176178,
2.98083353,144.1173859,
2.982499838,144.8820343,
2.984166622,142.6158447,
2.985833406,144.4959259,
2.987499952,144.2618408,
2.989166737,143.1366577,
2.990833282,144.4483185,
2.992500067,144.6085968,
2.994166851,142.9508362,
2.995833397,144.277359,
2.997500181,143.4618683,
2.999166727,144.1045685,
3.000833273,143.8661194,
3.002500057,143.7081146,
3.004166603,144.5157471,
3.005833387,143.9059296,
3.007499933,143.9495087,
3.009166718,143.9217682,
3.010833502,143.6302338,
3.012500048,143.4192352,
3.014166832,145.124054,
3.015833378,143.6534119,
3.017500162,144.6558838,
3.019166708,144.22435,
3.020833254,144.5058136,
3.022500038,144.5171204,
3.024166584,143.9192047,
3.025833368,145.2459869,
3.027500153,144.4122925,
3.029166698,144.8085938,
3.030833483,144.3673248,
3.032500029,145.8015594,
3.034166813,144.1610718,
3.035833597,144.0613861,
3.037499905,144.6916809,
3.039166689,144.051178,
3.040833235,144.8208313,
3.042500019,143.9773254,
3.044166803,143.9887085,
3.045833349,143.7671661,
3.047500134,144.1208191,
3.049166679,144.4728851,
3.050833464,144.7981873,
3.052500248,144.3345642,
3.054166555,144.1209106,
3.05583334,144.6376343,
3.057499886,144.1049194,
3.05916667,143.9407959,
3.060833454,144.5853882,
3.0625,143.8793182,
3.064166784,144.2448578,
3.06583333,144.7362213,
3.067500114,144.1886139,
3.069166899,145.0767365,
3.070833445,144.9094696,
3.07249999,144.7854156,
3.074166536,145.2502594,
3.075833321,144.3965149,
3.077500105,144.1391602,
3.079166651,144.0009613,
3.080833435,144.6221771,
3.082499981,143.1649475,
3.084166765,145.2960358,
3.085833549,144.0932312,
3.087500095,145.1051331,
3.08916688,145.1199188,
3.090833187,145.1043549,
3.092499971,143.6584167,
3.094166756,145.0219269,
3.095833302,143.9712524,
3.097500086,144.7139282,
3.099166632,143.3397064,
3.100833416,144.4136353,
3.1025002,144.0530853,
3.104166746,144.5436554,
3.10583353,145.3486938,
3.107499838,144.6653442,
3.109166622,144.5099487,
3.110833406,144.6704712,
3.112499952,145.3725433,
3.114166737,143.940918,
3.115833282,144.6277161,
3.117500067,145.5894165,
3.119166851,144.7275848,
3.120833397,145.4781189,
3.122500181,144.7651062,
3.124166727,144.0596313,
3.125833273,145.6548004,
3.127500057,144.081665,
3.129166603,144.8888245,
3.130833387,144.8025818,
3.132499933,143.4887238,
3.134166718,144.5411987,
3.135833502,144.3728638,
3.137500048,145.7880249,
3.139166832,144.9671326,
3.140833378,143.5434723,
3.142500162,144.484436,
3.144166708,144.3145294,
3.145833254,145.3226013,
3.147500038,143.4060669,
3.149166584,145.1840973,
3.150833368,144.5521088,
3.152500153,144.8660583,
3.154166698,144.9497681,
3.155833483,144.9441986,
3.157500029,144.9561768,
3.159166813,144.0432434,
3.160833597,144.5388184,
3.162499905,144.4184418,
3.164166689,145.4614105,
3.165833235,145.4841919,
3.167500019,145.25354,
3.169166803,144.8645782,
3.170833349,145.973114,
3.172500134,144.8283234,
3.174166679,144.6978607,
3.175833464,145.6830902,
3.177500248,144.7202454,
3.179166555,142.9474945,
3.18083334,144.2994995,
3.182499886,145.4087372,
3.18416667,145.0404358,
3.185833454,143.4823608,
3.1875,144.8320923,
3.189166784,145.6757202,
3.19083333,144.4339294,
3.192500114,144.5456543,
3.194166899,145.1030884,
3.195833445,145.1277924,
3.19749999,144.6942902,
3.199166536,146.0944977,
3.200833321,145.2247009,
3.202500105,143.6216888,
3.204166651,144.760849,
3.205833435,144.8244171,
3.207499981,145.4604034,
3.209166765,145.0762634,
3.210833549,144.8280334,
3.212500095,144.0240021,
3.21416688,144.8218842,
3.215833187,144.8348236,
3.217499971,144.4560394,
3.219166756,144.444046,
3.220833302,144.1094055,
3.222500086,146.2474823,
3.224166632,146.2675781,
3.225833416,145.1091614,
3.2275002,145.1218719,
3.229166746,146.6649933,
3.23083353,145.1692047,
3.232499838,145.6681366,
3.234166622,144.9969788,
3.235833406,145.7118225,
3.237499952,145.4611816,
3.239166737,144.7960358,
3.240833282,145.4072723,
3.242500067,145.147049,
3.244166851,144.9878082,
3.245833397,145.9063721,
3.247500181,145.1823425,
3.249166727,144.4202118,
3.250833273,145.3802338,
3.252500057,144.5110321,
3.254166603,145.6920929,

