1,,
Time (min),Intensity (a.u.),
0.0008333333535,56.82936096,
0.002500000177,57.55463791,
0.004166666884,57.03675079,
0.005833333358,56.96005249,
0.007500000298,56.48941422,
0.009166667238,56.89295578,
0.01083333418,57.52080154,
0.01250000019,57.26254272,
0.01416666713,56.90037537,
0.01583333313,57.59217834,
0.01750000194,56.88676071,
0.01916666701,57.28975677,
0.02083333395,57.12602234,
0.02250000089,56.69608307,
0.02416666783,57.39989471,
0.02583333477,57.78936005,
0.02749999985,57.67703247,
0.02916666679,56.93269348,
0.03083333373,57.25753021,
0.03250000253,57.19927979,
0.03416666761,56.63619232,
0.03583333641,57.35786438,
0.03750000149,57.70730591,
0.03916667029,57.07252884,
0.04083333537,57.11462021,
0.04250000045,57.29234695,
0.04416666925,56.72059631,
0.04583333433,57.43799973,
0.04750000313,57.41292572,
0.04916666821,57.12047577,
0.05083333328,57.64391708,
0.05250000209,57.3896637,
0.05416666716,57.45262146,
0.05583333597,57.04750061,
0.05750000104,57.00941849,
0.05916666612,56.80444717,
0.06083333492,57.56075668,
0.0625,57.04769135,
0.06416667253,56.75975418,
0.0658333376,57.02270126,
0.06750000268,57.32495499,
0.06916666776,57.52745438,
0.07083333284,56.87457657,
0.07249999791,56.94785309,
0.07416667044,56.81025314,
0.07583333552,57.24090576,
0.0775000006,57.74303055,
0.07916666567,57.58652115,
0.08083333075,57.75311279,
0.08250000328,57.80617905,
0.08416666836,57.05406189,
0.08583333343,56.8967247,
0.08749999851,56.90061188,
0.08916666359,57.50664902,
0.09083333611,57.61336517,
0.09250000119,56.86801147,
0.09416666627,57.07429504,
0.09583333135,58.09814835,
0.09749999642,56.87022781,
0.09916666895,56.93835449,
0.100833334,57.09168625,
0.1024999991,57.02888489,
0.1041666642,57.03499603,
0.1058333293,57.68104553,
0.1075000018,56.75122452,
0.1091666669,57.38304901,
0.1108333319,57.45855713,
0.112499997,57.20874786,
0.1141666621,57.07868195,
0.1158333346,56.85475159,
0.1174999997,57.07717133,
0.1191666648,57.76376724,
0.1208333299,57.17192841,
0.1224999949,56.76392365,
0.1241666749,57.44434738,
0.1258333325,56.82216263,
0.1274999976,56.67182541,
0.1291666627,57.42924881,
0.1308333278,56.90084839,
0.1325000077,57.66381836,
0.1341666728,57.96730042,
0.1358333379,57.49111176,
0.137500003,57.22341156,
0.1391666681,57.84597778,
0.1408333331,57.69446945,
0.1424999982,57.5560379,
0.1441666782,57.2732048,
0.1458333284,57.92377853,
0.1475000083,57.13379288,
0.1491666585,57.35692978,
0.1508333385,57.63516998,
0.1525000036,57.23112488,
0.1541666687,57.06685638,
0.1558333337,58.0585022,
0.1574999988,56.88007736,
0.1591666639,56.78010941,
0.1608333439,57.86987305,
0.162499994,57.05539703,
0.164166674,56.87653351,
0.1658333242,57.0254097,
0.1675000042,57.42627335,
0.1691666692,57.18662643,
0.1708333343,57.69276428,
0.1724999994,57.47535324,
0.1741666645,57.04986191,
0.1758333296,56.45137024,
0.1775000095,57.10512161,
0.1791666597,56.85804749,
0.1808333397,57.067173,
0.1824999899,57.19433975,
0.1841666698,56.9500351,
0.1858333498,56.79507065,
0.1875,57.42938614,
0.18916668,57.27926636,
0.1908333302,57.29391098,
0.1925000101,57.56080627,
0.1941666752,57.5322113,
0.1958333403,58.0752449,
0.1975000054,56.86670685,
0.1991666704,57.39293671,
0.2008333355,56.98588562,
0.2025000155,56.93387222,
0.2041666657,57.08642578,
0.2058333457,57.26639938,
0.2074999958,57.00670242,
0.2091666758,57.29692078,
0.2108333409,57.09915161,
0.212500006,58.15991211,
0.214166671,56.57360077,
0.2158333361,57.55139923,
0.2175000012,57.49944687,
0.2191666812,57.23697281,
0.2208333313,57.51994324,
0.2225000113,57.43512726,
0.2241666615,57.64526367,
0.2258333415,57.27391434,
0.2275000066,57.14958191,
0.2291666716,57.3903923,
0.2308333367,57.43118286,
0.2325000018,57.05151367,
0.2341666669,57.57133102,
0.2358333468,57.13034821,
0.237499997,57.27757645,
0.239166677,57.35446167,
0.2408333272,57.31474304,
0.2425000072,57.25678253,
0.2441666722,56.75935745,
0.2458333373,56.88818741,
0.2475000024,56.23603439,
0.2491666675,57.36036301,
0.2508333325,57.23694229,
0.2524999976,57.08654404,
0.2541666627,57.86720276,
0.2558333278,58.08277893,
0.2574999928,57.30441666,
0.2591666579,57.69291687,
0.2608333528,57.77724075,
0.2624999881,56.88053894,
0.264166683,56.98499298,
0.2658333182,57.4056015,
0.2675000131,57.19131088,
0.2691666484,57.99471283,
0.2708333433,56.91632843,
0.2725000083,57.65388107,
0.2741666734,56.44694901,
0.2758333385,57.04256821,
0.2775000036,57.52997589,
0.2791666687,56.83267975,
0.2808333337,57.3310051,
0.2824999988,56.72635651,
0.2841666937,57.38568878,
0.285833329,57.758461,
0.287499994,57.43697357,
0.2891666591,57.6852684,
0.290833354,56.56594467,
0.2925000191,57.33307266,
0.2941666543,56.76654816,
0.2958333194,57.60334015,
0.2975000143,57.27965546,
0.2991666794,57.76893616,
0.3008333445,56.96251678,
0.3024999797,57.12652588,
0.3041666746,57.3670578,
0.3058333397,57.48073578,
0.3075000048,57.69854736,
0.3091666996,57.6182518,
0.3108333349,56.67676163,
0.3125,57.63866425,
0.3141666651,56.83959579,
0.31583336,57.26079941,
0.317500025,57.39156342,
0.3191666603,56.8151741,
0.3208333254,57.38796234,
0.3225000203,56.95176315,
0.3241666853,57.34572983,
0.3258333504,57.22297287,
0.3274999857,56.74752426,
0.3291666806,57.85232544,
0.3308333457,56.92311478,
0.3325000107,57.10409546,
0.3341666758,57.21751404,
0.3358333409,56.95146179,
0.337500006,56.83160019,
0.339166671,56.68865585,
0.3408333361,57.2439537,
0.342500031,57.16162491,
0.3441666663,56.96883392,
0.3458333313,57.13996124,
0.3474999964,56.42329407,
0.3491666913,56.62159348,
0.3508333564,57.50221252,
0.3524999917,57.34135437,
0.3541666567,57.13264465,
0.3558333516,57.09220886,
0.3575000167,56.87884903,
0.3591666818,56.61776733,
0.360833317,57.33372116,
0.3625000119,57.62086105,
0.364166677,57.89098358,
0.3658333421,57.30264664,
0.3675000072,56.30341339,
0.3691666722,56.29330444,
0.3708333373,57.33489227,
0.3725000024,57.53158569,
0.3741666675,56.59038544,
0.3758333623,57.41342163,
0.3774999976,57.07364655,
0.3791666627,57.00992966,
0.3808333278,57.88313675,
0.3825000226,57.02900696,
0.3841666877,57.07621765,
0.385833323,57.91943741,
0.3874999881,57.20503616,
0.389166683,57.1783638,
0.390833348,57.4957428,
0.3925000131,57.93869019,
0.3941666484,57.09376144,
0.3958333433,56.74352264,
0.3975000083,57.04022217,
0.3991666734,56.90339279,
0.4008333385,57.07463455,
0.4025000036,56.50634766,
0.4041666687,57.51715851,
0.4058333337,56.73708344,
0.4074999988,57.37399673,
0.4091666937,56.85978317,
0.410833329,57.56638336,
0.412499994,57.16622162,
0.4141666591,57.10044479,
0.415833354,57.15563583,
0.4175000191,57.74765396,
0.4191666543,57.25272369,
0.4208333194,57.31579971,
0.4225000143,57.27943802,
0.4241666794,56.91277695,
0.4258333445,57.19820786,
0.4274999797,57.02006149,
0.4291666746,56.82754517,
0.4308333397,56.80626678,
0.4325000048,57.45320129,
0.4341666996,56.9845314,
0.4358333349,57.62525558,
0.4375,57.77585602,
0.4391666651,56.28288651,
0.44083336,57.00200272,
0.442500025,57.22712326,
0.4441666603,56.93621826,
0.4458333254,57.04943085,
0.4475000203,56.92376328,
0.4491666853,56.90670395,
0.4508333504,57.01926041,
0.4524999857,57.32983398,
0.4541666806,57.23670197,
0.4558333457,56.85465622,
0.4575000107,57.49860001,
0.4591666758,57.25202179,
0.4608333409,57.03951645,
0.462500006,56.91150284,
0.464166671,56.80981827,
0.4658333361,57.11582184,
0.467500031,56.95838165,
0.4691666663,57.68210983,
0.4708333313,56.6885376,
0.4724999964,57.66697311,
0.4741666913,56.9822197,
0.4758333564,57.33602524,
0.4774999917,57.15076828,
0.4791666567,57.87545776,
0.4808333516,57.68231583,
0.4825000167,56.40021896,
0.4841666818,56.93965149,
0.485833317,57.45772552,
0.4875000119,57.58197403,
0.489166677,57.31188583,
0.4908333421,56.97702408,
0.4925000072,57.42359543,
0.4941666722,57.9038887,
0.4958333373,56.89021683,
0.4975000024,56.59563065,
0.4991666675,56.6739502,
0.5008333325,56.55548477,
0.5024999976,56.52307129,
0.5041666627,57.0291481,
0.5058333278,57.18314743,
0.5074999928,57.47278595,
0.5091666579,57.02759171,
0.510833323,56.7097435,
0.5124999881,57.65518188,
0.5141666532,56.78902054,
0.5158333182,57.50344849,
0.5175000429,57.12317276,
0.5191666484,57.24019241,
0.5208333135,57.94348907,
0.5224999785,57.28205872,
0.5241667032,57.24694061,
0.5258333683,57.45512009,
0.5274999738,56.78406525,
0.5291666389,57.34272385,
0.5308333635,56.33827972,
0.5325000286,57.70851517,
0.5341666341,57.2929306,
0.5358333588,57.38330841,
0.5375000238,56.66931915,
0.5391666889,57.15197754,
0.540833354,57.36397552,
0.5424999595,57.37709808,
0.5441666842,57.72103882,
0.5458333492,57.65379333,
0.5475000143,56.91905594,
0.5491666794,57.71717072,
0.5508333445,57.06946945,
0.5525000095,57.95986557,
0.5541666746,57.22563553,
0.5558333993,56.44972992,
0.5575000048,57.30237579,
0.5591666698,57.28741074,
0.5608333349,57.37067032,
0.5625,56.20526505,
0.5641667247,57.57523727,
0.5658333302,57.05645752,
0.5674999952,56.91610718,
0.5691667199,57.46349335,
0.5708333254,57.90890503,
0.5725000501,56.67641449,
0.5741666555,56.91635895,
0.5758333206,57.14354324,
0.5775000453,57,
0.5791666508,56.63064957,
0.5808333755,57.35601425,
0.5825000405,56.16703415,
0.584166646,57.04221344,
0.5858333707,56.96377182,
0.5874999762,57.18645859,
0.5891667008,57.66062546,
0.5908333659,56.81660461,
0.5924999714,56.89580536,
0.5941666961,56.63970947,
0.5958333611,57.55302048,
0.5975000262,57.07001877,
0.5991666913,56.64381027,
0.6008332968,56.63318253,
0.6025000215,57.24788666,
0.6041666865,56.88644028,
0.6058333516,56.60422134,
0.6075000167,57.05149078,
0.6091666818,57.35797882,
0.6108333468,57.16387939,
0.6125000119,57.11539078,
0.614166677,56.7622261,
0.6158333421,56.66316986,
0.6175000072,56.71247864,
0.6191666722,56.93950272,
0.6208333373,57.26345444,
0.622500062,56.59317017,
0.6241666675,58.04587173,
0.6258333325,57.28401947,
0.6274999976,57.29337692,
0.6291666627,57.2203331,
0.6308333874,57.52852249,
0.6324999928,56.87268829,
0.6341666579,57.54004669,
0.6358333826,57.79586411,
0.6374999881,56.92169189,
0.6391667128,57.45159149,
0.6408333182,57.1468277,
0.6424999833,56.98885345,
0.644166708,56.39847565,
0.6458333135,57.52497101,
0.6475000381,57.87329102,
0.6491667032,56.86127472,
0.6508333087,56.64931488,
0.6525000334,56.47277451,
0.6541666389,57.68312454,
0.6558333635,56.40664291,
0.6575000286,57.31258392,
0.6591666341,57.40008163,
0.6608333588,56.9376297,
0.6625000238,57.14883804,
0.6641666889,57.26238251,
0.665833354,57.10525894,
0.6674999595,56.73522949,
0.6691666842,56.87355804,
0.6708333492,56.84997177,
0.6725000143,57.12910843,
0.6741666794,57.13336182,
0.6758333445,57.61932373,
0.6775000095,57.13975525,
0.6791666746,56.88426971,
0.6808333993,56.52258682,
0.6825000048,56.74417877,
0.6841666698,57.1119194,
0.6858333349,57.53656006,
0.6875,57.03807068,
0.6891667247,57.24816513,
0.6908333302,57.135849,
0.6924999952,57.17300034,
0.6941667199,57.10871506,
0.6958333254,56.06384277,
0.6975000501,56.906353,
0.6991666555,57.00402832,
0.7008333206,57.30447769,
0.7025000453,57.57943344,
0.7041666508,57.93749237,
0.7058333755,57.06362152,
0.7075000405,57.73104477,
0.709166646,56.51020813,
0.7108333707,57.55685806,
0.7124999762,57.52460098,
0.7141667008,57.32095718,
0.7158333659,56.30031586,
0.7174999714,57.64676666,
0.7191666961,56.80160141,
0.7208333611,57.0360527,
0.7225000262,57.31656265,
0.7241666913,57.31162643,
0.7258332968,57.03031158,
0.7275000215,57.86395264,
0.7291666865,57.4618721,
0.7308333516,57.18497467,
0.7325000167,57.00703812,
0.7341666818,57.29448318,
0.7358333468,57.21613312,
0.7375000119,57.17933273,
0.739166677,57.20355606,
0.7408333421,56.88946915,
0.7425000072,56.61883545,
0.7441666722,56.67713547,
0.7458333373,57.57645416,
0.747500062,57.25770187,
0.7491666675,56.62258148,
0.7508333325,57.47533417,
0.7524999976,56.98274231,
0.7541666627,56.75542068,
0.7558333874,56.82210922,
0.7574999928,57.04629898,
0.7591666579,58.0296402,
0.7608333826,57.55660629,
0.7624999881,56.65588379,
0.7641667128,57.10057068,
0.7658333182,57.01696396,
0.7674999833,56.94073486,
0.769166708,56.95781708,
0.7708333135,56.4848671,
0.7725000381,56.94194412,
0.7741667032,57.49063873,
0.7758333087,56.61491394,
0.7775000334,57.399086,
0.7791666389,56.98065186,
0.7808333635,56.84018326,
0.7825000286,56.84065247,
0.7841666341,57.37670517,
0.7858333588,57.63544846,
0.7875000238,57.57905197,
0.7891666889,56.40165329,
0.790833354,56.91959,
0.7924999595,56.46905899,
0.7941666842,57.74544525,
0.7958333492,57.60354996,
0.7975000143,56.80702972,
0.7991666794,56.93920517,
0.8008333445,57.57411575,
0.8025000095,56.86320496,
0.8041666746,57.54810715,
0.8058333993,56.61048508,
0.8075000048,56.51457596,
0.8091666698,56.63500595,
0.8108333349,56.56814194,
0.8125,56.73466492,
0.8141667247,57.39943314,
0.8158333302,56.86845398,
0.8174999952,57.34638596,
0.8191667199,56.86531448,
0.8208333254,57.11750793,
0.8225000501,57.45663452,
0.8241666555,56.92773056,
0.8258333206,57.5762825,
0.8275000453,57.67669678,
0.8291666508,57.51486206,
0.8308333755,56.8910675,
0.8325000405,57.99103165,
0.834166646,57.36854935,
0.8358333707,57.12666702,
0.8374999762,56.81974792,
0.8391667008,56.9800415,
0.8408333659,57.3143425,
0.8424999714,57.44223022,
0.8441666961,56.85416031,
0.8458333611,56.48791885,
0.8475000262,57.14758682,
0.8491666913,57.1341362,
0.8508332968,57.32559586,
0.8525000215,57.47024536,
0.8541666865,56.70559311,
0.8558333516,56.77993393,
0.8575000167,56.9712677,
0.8591666818,57.19662094,
0.8608333468,56.83336258,
0.8625000119,56.75633621,
0.864166677,57.36026382,
0.8658333421,57.45619202,
0.8675000072,56.98849869,
0.8691666722,57.48319244,
0.8708333373,57.76672745,
0.872500062,57.29182053,
0.8741666675,56.76252365,
0.8758333325,57.38350296,
0.8774999976,56.83874893,
0.8791666627,57.48337173,
0.8808333874,57.74756241,
0.8824999928,57.31789017,
0.8841666579,56.85310364,
0.8858333826,57.25408554,
0.8874999881,56.71014404,
0.8891667128,57.07324982,
0.8908333182,56.93513489,
0.8924999833,56.91457748,
0.894166708,57.34401703,
0.8958333135,57.10771561,
0.8975000381,57.32772064,
0.8991667032,56.83364105,
0.9008333087,57.55098724,
0.9025000334,57.51301575,
0.9041666389,57.45944214,
0.9058333635,57.10769272,
0.9075000286,57.02762604,
0.9091666341,57.45628357,
0.9108333588,57.30838776,
0.9125000238,57.35853958,
0.9141666889,57.27023315,
0.915833354,58.00751114,
0.9174999595,57.08576584,
0.9191666842,56.0872612,
0.9208333492,57.06855011,
0.9225000143,56.92418671,
0.9241666794,56.87617493,
0.9258333445,57.03260803,
0.9275000095,56.76792908,
0.9291666746,57.2233963,
0.9308333993,57.47935486,
0.9325000048,57.15468979,
0.9341666698,56.67928314,
0.9358333349,56.93559647,
0.9375,56.53777695,
0.9391667247,57.09758377,
0.9408333302,57.5307312,
0.9424999952,57.19192123,
0.9441667199,57.34298325,
0.9458333254,56.99943924,
0.9475000501,56.7834816,
0.9491666555,56.94526291,
0.9508333206,56.87132645,
0.9525000453,56.95942688,
0.9541666508,56.75023651,
0.9558333755,56.72793579,
0.9575000405,57.32980728,
0.959166646,57.32025909,
0.9608333707,57.27922058,
0.9624999762,56.96891022,
0.9641667008,56.58934021,
0.9658333659,57.10935211,
0.9674999714,57.09973526,
0.9691666961,57.21681595,
0.9708333611,57.3064537,
0.9725000262,56.73192978,
0.9741666913,56.85030365,
0.9758332968,57.36339188,
0.9775000215,57.6124649,
0.9791666865,56.9147644,
0.9808333516,56.39490891,
0.9825000167,57.25079346,
0.9841666818,57.16891861,
0.9858333468,56.79463577,
0.9875000119,57.20650864,
0.989166677,56.68917847,
0.9908333421,57.38934326,
0.9925000072,57.48283005,
0.9941666722,56.74817276,
0.9958333373,56.33445358,
0.997500062,56.61343765,
0.9991666675,57.60346603,
1.000833273,57.31113052,
1.002500057,57.62147141,
1.004166722,57.26305008,
1.005833387,57.19951248,
1.007500052,57.55447769,
1.009166598,57.65613937,
1.010833383,57.25567627,
1.012500048,57.61309814,
1.014166713,56.66585922,
1.015833378,56.86343002,
1.017500043,56.94074631,
1.019166708,56.9022522,
1.020833373,57.73955154,
1.022500038,57.07323456,
1.024166703,57.20731354,
1.025833368,57.23323822,
1.027500033,56.67284393,
1.029166698,56.84560394,
1.030833364,57.4946785,
1.032500029,56.57460022,
1.034166694,57.38811493,
1.035833359,57.56045151,
1.037500024,57.44120789,
1.039166689,57.6487999,
1.040833354,57.0121994,
1.042500019,56.90732574,
1.044166684,56.54958725,
1.045833349,57.05683899,
1.047500014,57.09365463,
1.049166679,57.65194702,
1.050833344,57.16026688,
1.05250001,56.81214523,
1.054166675,56.79669189,
1.05583334,57.01269913,
1.057500005,58.11158752,
1.05916667,56.95348358,
1.060833335,55.57947922,
1.0625,55.74900436,
1.064166665,57.26155853,
1.06583333,56.33929062,
1.067499995,51.46052933,
1.06916666,57.4260788,
1.070833325,55.82547379,
1.07249999,60.95072937,
1.074166775,61.28602219,
1.07583344,64.30723572,
1.077499986,65.18959045,
1.079166651,60.29152679,
1.080833316,66.58417511,
1.0825001,58.537117,
1.084166765,68.68286896,
1.085833311,67.92945099,
1.087499976,69.24913025,
1.089166641,69.60434723,
1.090833426,70.71218109,
1.092500091,71.92224121,
1.094166636,72.53546906,
1.095833302,72.55255127,
1.097499967,73.68526459,
1.099166751,74.25666809,
1.100833416,75.64537048,
1.102500081,76.4870224,
1.104166627,76.59648132,
1.105833292,77.29708862,
1.107500076,78.40984344,
1.109166741,77.92472076,
1.110833406,79.46079254,
1.112499952,79.92505646,
1.114166617,80.55304718,
1.115833402,80.52005005,
1.117500067,81.3269577,
1.119166732,82.54090881,
1.120833278,82.61473083,
1.122499943,82.88503265,
1.124166727,83.62216187,
1.125833392,84.27602386,
1.127500057,84.47944641,
1.129166722,84.88930511,
1.130833268,85.21463776,
1.132500052,85.61075592,
1.134166718,86.65812683,
1.135833383,86.41043091,
1.137500048,87.63705444,
1.139166594,87.07218933,
1.140833378,87.79080963,
1.142500043,87.28369904,
1.144166708,88.00614929,
1.145833373,88.8224411,
1.147499919,89.75539398,
1.149166703,89.42358398,
1.150833368,90.63902283,
1.152500033,91.16125488,
1.154166698,90.01553345,
1.155833364,91.12226868,
1.157500029,91.57752228,
1.159166694,92.25361633,
1.160833359,92.5714035,
1.162500024,91.77494812,
1.164166689,91.89627838,
1.165833354,92.53178406,
1.167500019,93.61128235,
1.169166684,93.81787109,
1.170833349,95.33979797,
1.172500014,94.55945587,
1.174166799,95.4642334,
1.175833344,95.59590149,
1.17750001,95.76024628,
1.179166675,96.09815979,
1.18083334,96.34159088,
1.182500124,96.48822021,
1.18416667,96.68872833,
1.185833335,97.20554352,
1.1875,97.26490784,
1.189166665,98.62393951,
1.190833449,98.63230896,
1.192499995,98.25786591,
1.19416666,98.82865906,
1.195833325,98.55099487,
1.19749999,98.22142792,
1.199166775,99.77784729,
1.20083344,100.2874756,
1.202499986,98.97661591,
1.204166651,98.76964569,
1.205833316,100.048317,
1.2075001,100.0059586,
1.209166765,100.0011978,
1.210833311,101.4479828,
1.212499976,100.8848953,
1.214166641,100.9666061,
1.215833426,102.0548325,
1.217500091,101.0493546,
1.219166636,101.3505478,
1.220833302,101.2710419,
1.222499967,102.6335297,
1.224166751,102.4270325,
1.225833416,103.083046,
1.227500081,102.7469406,
1.229166627,103.191452,
1.230833292,103.7006302,
1.232500076,103.7590027,
1.234166741,103.4521866,
1.235833406,104.4161224,
1.237499952,104.3738708,
1.239166617,105.1223602,
1.240833402,104.5260315,
1.242500067,105.0122299,
1.244166732,105.2387848,
1.245833278,105.9303284,
1.247499943,106.0245361,
1.249166727,106.16745,
1.250833392,106.111145,
1.252500057,106.1293259,
1.254166722,106.196106,
1.255833268,105.7379913,
1.257500052,107.0905838,
1.259166718,107.0205994,
1.260833383,107.0765533,
1.262500048,107.3087387,
1.264166594,107.6707153,
1.265833378,108.4192429,
1.267500043,107.2486191,
1.269166708,108.2057877,
1.270833373,108.1843491,
1.272499919,108.3399887,
1.274166703,108.4066086,
1.275833368,108.7845535,
1.277500033,108.4715271,
1.279166698,109.3875885,
1.280833364,109.5387802,
1.282500029,108.7296219,
1.284166694,109.1753922,
1.285833359,109.0618896,
1.287500024,109.8549271,
1.289166689,109.4850311,
1.290833354,109.6018295,
1.292500019,110.1805267,
1.294166684,109.864975,
1.295833349,110.4027405,
1.297500014,110.9224701,
1.299166799,110.4887085,
1.300833344,111.2041855,
1.30250001,111.6254349,
1.304166675,111.10112,
1.30583334,110.9268723,
1.307500124,110.368866,
1.30916667,112.1771851,
1.310833335,112.9926376,
1.3125,112.1239014,
1.314166665,111.0296555,
1.315833449,112.3510284,
1.317499995,111.0707703,
1.31916666,112.0634995,
1.320833325,111.6191406,
1.32249999,112.4333038,
1.324166775,113.7592773,
1.32583344,112.8674164,
1.327499986,113.5443268,
1.329166651,112.649292,
1.330833316,112.5924606,
1.3325001,112.9861374,
1.334166765,113.7540588,
1.335833311,113.7644806,
1.337499976,114.5677338,
1.339166641,115.0104218,
1.340833426,114.456543,
1.342500091,113.4254456,
1.344166636,114.4890366,
1.345833302,114.1955643,
1.347499967,114.4459534,
1.349166751,113.8833771,
1.350833416,114.6338806,
1.352500081,114.1650085,
1.354166627,114.7597427,
1.355833292,114.911911,
1.357500076,115.5167236,
1.359166741,115.5519257,
1.360833406,114.9476318,
1.362499952,115.9953766,
1.364166617,116.0704727,
1.365833402,116.051033,
1.367500067,114.8531113,
1.369166732,116.6394424,
1.370833278,116.4321594,
1.372499943,117.1054993,
1.374166727,118.3572388,
1.375833392,115.5368881,
1.377500057,117.3128967,
1.379166722,116.4970398,
1.380833268,116.137825,
1.382500052,117.1901093,
1.384166718,117.6594467,
1.385833383,117.5073624,
1.387500048,117.1283646,
1.389166594,116.7023315,
1.390833378,117.8989792,
1.392500043,116.5140076,
1.394166708,117.6097412,
1.395833373,117.3462143,
1.397499919,117.3776093,
1.399166703,117.6302948,
1.400833368,117.6860504,
1.402500033,118.7372665,
1.404166698,118.6323013,
1.405833364,117.6826172,
1.407500029,117.1250305,
1.409166694,118.1283493,
1.410833359,118.5963211,
1.412500024,118.4796295,
1.414166689,119.3848343,
1.415833354,117.9470901,
1.417500019,119.6375885,
1.419166684,118.3213959,
1.420833349,118.8583755,
1.422500014,119.4160538,
1.424166799,119.4705505,
1.425833344,119.9945145,
1.42750001,120.6168671,
1.429166675,120.2203293,
1.43083334,119.5365601,
1.432500124,119.7948914,
1.43416667,120.5438232,
1.435833335,119.3821869,
1.4375,119.966507,
1.439166665,119.2062912,
1.440833449,119.5385742,
1.442499995,120.4900894,
1.44416666,120.2750015,
1.445833325,120.5172958,
1.44749999,120.6821823,
1.449166775,119.8265381,
1.45083344,120.1204834,
1.452499986,118.8450623,
1.454166651,120.1713867,
1.455833316,121.5250092,
1.4575001,120.5784607,
1.459166765,121.3069077,
1.460833311,121.455368,
1.462499976,121.2751083,
1.464166641,120.4198303,
1.465833426,120.2916641,
1.467500091,122.1184692,
1.469166636,121.4996567,
1.470833302,122.2088928,
1.472499967,121.8196259,
1.474166751,121.8688812,
1.475833416,122.1065292,
1.477500081,121.9614487,
1.479166627,122.4452438,
1.480833292,122.5371017,
1.482500076,123.2772522,
1.484166741,122.8138885,
1.485833406,122.1142044,
1.487499952,122.8726425,
1.489166617,123.4484406,
1.490833402,123.8455505,
1.492500067,123.0541611,
1.494166732,121.6080246,
1.495833278,123.4151382,
1.497499943,122.6371307,
1.499166727,123.3971786,
1.500833392,123.6173935,
1.502500057,121.6619034,
1.504166722,122.935524,
1.505833268,123.6158066,
1.507500052,122.4759674,
1.509166718,122.8874969,
1.510833383,123.2704849,
1.512500048,124.1334457,
1.514166594,123.1348953,
1.515833378,123.560463,
1.517500043,123.9308548,
1.519166708,123.4530487,
1.520833373,124.3167877,
1.522499919,122.6429367,
1.524166703,123.1268463,
1.525833368,123.710907,
1.527500033,123.5498581,
1.529166698,124.8109894,
1.530833364,124.5511475,
1.532500029,124.6347046,
1.534166694,124.5905228,
1.535833359,124.4843521,
1.537500024,124.6113892,
1.539166689,124.95224,
1.540833354,125.2400894,
1.542500019,124.097168,
1.544166684,123.8890381,
1.545833349,124.8392868,
1.547500014,125.7171173,
1.549166799,124.3121948,
1.550833344,125.0487595,
1.55250001,124.3608322,
1.554166675,124.9835052,
1.55583334,124.5579605,
1.557500124,124.6468506,
1.55916667,125.4922562,
1.560833335,125.3280945,
1.5625,125.6237946,
1.564166665,125.6266708,
1.565833449,125.776947,
1.567499995,125.1786194,
1.56916666,125.6533432,
1.570833325,125.8528366,
1.57249999,125.3124771,
1.574166775,125.289856,
1.57583344,125.7736206,
1.577499986,126.2217178,
1.579166651,125.9582672,
1.580833316,125.4070816,
1.5825001,126.5641632,
1.584166765,125.9847717,
1.585833311,126.8921967,
1.587499976,126.8626633,
1.589166641,127.7132645,
1.590833426,125.6258163,
1.592500091,126.1700974,
1.594166636,126.4985199,
1.595833302,127.694931,
1.597499967,125.7621384,
1.599166751,127.5492935,
1.600833416,127.0505905,
1.602500081,126.1729889,
1.604166627,126.4111557,
1.605833292,127.3551865,
1.607500076,127.8209839,
1.609166741,126.5827255,
1.610833406,127.3806076,
1.612499952,126.4380493,
1.614166617,127.0468979,
1.615833402,126.9170609,
1.617500067,128.8156891,
1.619166732,127.0303421,
1.620833278,127.6544495,
1.622499943,127.4768982,
1.624166727,127.7363739,
1.625833392,127.4681702,
1.627500057,127.3646927,
1.629166722,126.4919968,
1.630833268,128.1529846,
1.632500052,127.5401382,
1.634166718,127.2987595,
1.635833383,128.3221283,
1.637500048,128.8440552,
1.639166594,127.807869,
1.640833378,128.337677,
1.642500043,128.6233368,
1.644166708,127.72435,
1.645833373,128.6880493,
1.647499919,127.7553558,
1.649166703,127.7609787,
1.650833368,128.2680511,
1.652500033,128.0509796,
1.654166698,128.147644,
1.655833364,129.1625061,
1.657500029,128.3390656,
1.659166694,128.6155701,
1.660833359,128.7236633,
1.662500024,127.8512955,
1.664166689,128.1140442,
1.665833354,128.5932465,
1.667500019,127.9994278,
1.669166684,128.7472992,
1.670833349,129.4595184,
1.672500014,128.6579132,
1.674166799,128.0808563,
1.675833344,129.0097046,
1.67750001,128.9434509,
1.679166675,129.3371429,
1.68083334,128.3768311,
1.682500124,129.5773315,
1.68416667,128.824707,
1.685833335,128.5174713,
1.6875,128.6855011,
1.689166665,128.6213684,
1.690833449,128.7774353,
1.692499995,129.0364532,
1.69416666,129.3394165,
1.695833325,129.882019,
1.69749999,130.229126,
1.699166775,129.1611023,
1.70083344,128.8593597,
1.702499986,129.0334167,
1.704166651,130.8582764,
1.705833316,129.3558655,
1.7075001,130.3038635,
1.709166765,130.2602539,
1.710833311,128.7936249,
1.712499976,130.2840271,
1.714166641,129.6237335,
1.715833426,130.2348022,
1.717500091,130.2002716,
1.719166636,129.9459381,
1.720833302,129.8166962,
1.722499967,130.4527435,
1.724166751,130.1847992,
1.725833416,130.7036896,
1.727500081,129.2439423,
1.729166627,130.8564148,
1.730833292,129.5168457,
1.732500076,131.1492767,
1.734166741,129.8759155,
1.735833406,130.5591278,
1.737499952,131.004425,
1.739166617,130.8703308,
1.740833402,131.3841248,
1.742500067,130.7856903,
1.744166732,130.4569244,
1.745833278,131.6803589,
1.747499943,129.66716,
1.749166727,130.1895905,
1.750833392,129.9437714,
1.752500057,130.7749023,
1.754166722,130.6099854,
1.755833268,131.0660858,
1.757500052,130.8306885,
1.759166718,130.4371338,
1.760833383,130.5242004,
1.762500048,131.2177734,
1.764166594,131.0070038,
1.765833378,131.0307312,
1.767500043,132.0891418,
1.769166708,131.5111084,
1.770833373,131.0976715,
1.772499919,130.6811066,
1.774166703,131.3774261,
1.775833368,131.5519562,
1.777500033,130.0057373,
1.779166698,130.5288239,
1.780833364,130.6166077,
1.782500029,131.134552,
1.784166694,130.8963318,
1.785833359,131.2251129,
1.787500024,132.8648071,
1.789166689,132.0524597,
1.790833354,132.3689117,
1.792500019,131.3208313,
1.794166684,131.2963104,
1.795833349,132.0811768,
1.797500014,131.9074249,
1.799166799,131.9732666,
1.800833344,131.5089111,
1.80250001,132.2509918,
1.804166675,132.263443,
1.80583334,131.9412079,
1.807500124,132.016861,
1.80916667,132.0292816,
1.810833335,131.3348999,
1.8125,132.0074615,
1.814166665,133.0583496,
1.815833449,131.8507843,
1.817499995,131.7188873,
1.81916666,132.6387329,
1.820833325,132.4864502,
1.82249999,130.3601074,
1.824166775,131.8756256,
1.82583344,132.4685974,
1.827499986,132.3144989,
1.829166651,133.1508026,
1.830833316,132.13237,
1.8325001,133.341217,
1.834166765,132.6044464,
1.835833311,132.0882263,
1.837499976,132.3494415,
1.839166641,133.3733063,
1.840833426,132.2150269,
1.842500091,133.09935,
1.844166636,133.9102936,
1.845833302,133.0807495,
1.847499967,132.0300598,
1.849166751,133.7135162,
1.850833416,133.0968933,
1.852500081,132.9872131,
1.854166627,132.1392059,
1.855833292,132.9247589,
1.857500076,133.1520538,
1.859166741,132.7059326,
1.860833406,131.5619354,
1.862499952,132.6992645,
1.864166617,132.7329407,
1.865833402,133.3433075,
1.867500067,133.5626526,
1.869166732,133.4152679,
1.870833278,132.2285004,
1.872499943,131.9915771,
1.874166727,133.6628571,
1.875833392,132.447998,
1.877500057,132.8024445,
1.879166722,132.5358734,
1.880833268,133.7847137,
1.882500052,133.8222809,
1.884166718,133.4342499,
1.885833383,133.3208923,
1.887500048,133.8025208,
1.889166594,131.4752045,
1.890833378,132.7036133,
1.892500043,133.3993378,
1.894166708,133.0527954,
1.895833373,132.7901459,
1.897499919,132.6319275,
1.899166703,133.677475,
1.900833368,134.7234344,
1.902500033,133.7302856,
1.904166698,132.7486572,
1.905833364,133.7225647,
1.907500029,134.5225983,
1.909166694,132.7763214,
1.910833359,134.0655823,
1.912500024,133.7634735,
1.914166689,134.4675903,
1.915833354,133.8408051,
1.917500019,134.113327,
1.919166684,134.0788422,
1.920833349,134.9520264,
1.922500014,133.3600616,
1.924166799,134.3165131,
1.925833344,133.7198181,
1.92750001,134.2607117,
1.929166675,134.0365753,
1.93083334,133.8662415,
1.932500124,133.515274,
1.93416667,133.2723083,
1.935833335,134.4864197,
1.9375,134.3506165,
1.939166665,133.1630859,
1.940833449,134.6968994,
1.942499995,135.7214661,
1.94416666,133.8639526,
1.945833325,133.5668182,
1.94749999,134.3841095,
1.949166775,134.9311218,
1.95083344,133.5316925,
1.952499986,133.9024811,
1.954166651,135.3695831,
1.955833316,134.4103699,
1.9575001,134.6395721,
1.959166765,134.2543182,
1.960833311,133.2702484,
1.962499976,134.089035,
1.964166641,134.863266,
1.965833426,134.5071869,
1.967500091,133.893219,
1.969166636,133.9559631,
1.970833302,133.9941559,
1.972499967,134.7816467,
1.974166751,135.1464844,
1.975833416,135.552887,
1.977500081,135.2753143,
1.979166627,134.4235992,
1.980833292,135.0259705,
1.982500076,135.7949371,
1.984166741,135.3770447,
1.985833406,135.1961975,
1.987499952,133.8704987,
1.989166617,135.2792358,
1.990833402,134.1243134,
1.992500067,135.2668152,
1.994166732,136.3394623,
1.995833278,133.9640808,
1.997499943,135.5580139,
1.999166727,134.6870422,
2.000833273,134.5625153,
2.002500057,134.5377808,
2.004166603,135.4749908,
2.005833387,134.9541931,
2.007500172,134.4849548,
2.009166718,135.1589508,
2.010833263,135.9210663,
2.012500048,135.2025299,
2.014166594,135.1888428,
2.015833378,135.5549316,
2.017500162,136.2210236,
2.019166708,135.4206085,
2.020833254,135.5542755,
2.022500038,136.9446869,
2.024166822,136.0927277,
2.025833368,136.5881042,
2.027499914,135.6952057,
2.029166698,135.0144501,
2.030833244,136.0381927,
2.032500029,134.732666,
2.034166813,136.9321899,
2.035833359,135.7413025,
2.037499905,135.3572998,
2.039166689,135.6540833,
2.040833473,135.4670715,
2.042500019,134.9957581,
2.044166803,135.0659027,
2.045833349,134.6105804,
2.047499895,135.7404938,
2.049166679,135.4268951,
2.050833464,136.4341278,
2.05250001,137.4093933,
2.054166555,135.9136505,
2.05583334,135.1430359,
2.057500124,135.6392059,
2.05916667,135.5511322,
2.060833454,136.0932922,
2.0625,135.7420654,
2.064166546,135.6594696,
2.06583333,135.9506073,
2.067500114,136.7828674,
2.06916666,135.4019775,
2.070833445,134.9796448,
2.07249999,135.68396,
2.074166775,135.6296692,
2.075833321,136.3293457,
2.077500105,136.0577087,
2.079166651,135.2624512,
2.080833197,136.186615,
2.082499981,136.8129578,
2.084166765,136.7312775,
2.085833311,135.5587158,
2.087500095,135.8096924,
2.089166641,135.8191833,
2.090833426,136.1556091,
2.092499971,135.581543,
2.094166756,136.0565491,
2.095833302,136.5227814,
2.097500086,135.5852661,
2.099166632,136.0826263,
2.100833416,136.5375824,
2.102499962,136.4329224,
2.104166746,136.3230591,
2.105833292,136.0617065,
2.107500076,136.4495697,
2.109166622,135.9741211,
2.110833406,136.4718018,
2.112499952,136.8979492,
2.114166737,137.5002289,
2.115833521,136.9073639,
2.117500067,136.950058,
2.119166613,137.190918,
2.120833397,136.505249,
2.122499943,136.5426483,
2.124166727,136.9642944,
2.125833273,136.6701508,
2.127500057,135.7206879,
2.129166603,136.2010803,
2.130833387,136.7639771,
2.132500172,137.3229218,
2.134166718,136.7452698,
2.135833502,136.5456238,
2.137500048,136.6559448,
2.139166832,136.7250671,
2.140833378,137.6519165,
2.142500162,136.9466705,
2.144166708,136.4962158,
2.145833254,136.3792877,
2.147500038,136.6087646,
2.149166584,136.3043823,
2.150833368,135.5413971,
2.152500153,135.633606,
2.154166698,136.3180847,
2.155833483,137.4884338,
2.157500029,137.5275116,
2.159166813,136.6394653,
2.160833597,136.6990356,
2.162499905,136.463028,
2.164166689,136.1343079,
2.165833235,137.4489288,
2.167500019,136.4834137,
2.169166803,137.4013977,
2.170833349,137.148941,
2.172500134,137.0756989,
2.174166679,137.9455261,
2.175833464,136.9911194,
2.177500248,137.7054901,
2.179166555,136.2072144,
2.18083334,135.85672,
2.182499886,138.3023071,
2.18416667,138.4717865,
2.185833454,137.3123932,
2.1875,137.489624,
2.189166784,136.9597778,
2.19083333,137.1610107,
2.192500114,138.3508759,
2.194166899,136.5172119,
2.195833445,137.318222,
2.19749999,137.3917236,
2.199166536,137.6629639,
2.200833321,136.5343781,
2.202500105,137.0035248,
2.204166651,137.3105774,
2.205833435,137.7182007,
2.207499981,138.8685608,
2.209166765,137.3501282,
2.210833549,137.8927307,
2.212500095,137.7094727,
2.21416688,137.6017456,
2.215833187,137.8595734,
2.217499971,136.7794647,
2.219166756,137.4088898,
2.220833302,137.1877289,
2.222500086,138.2570038,
2.224166632,137.3596497,
2.225833416,137.4199066,
2.2275002,138.5312347,
2.229166746,138.4752197,
2.23083353,137.643631,
2.232499838,137.6068573,
2.234166622,137.2892151,
2.235833406,138.6219482,
2.237499952,137.3955383,
2.239166737,137.8479767,
2.240833282,138.2924652,
2.242500067,137.6715393,
2.244166851,137.6070099,
2.245833397,136.745636,
2.247500181,138.532547,
2.249166727,136.9411469,
2.250833273,138.96315,
2.252500057,136.8607788,
2.254166603,137.9316559,
2.255833387,138.5812836,
2.257499933,137.2245483,
2.259166718,138.2396851,
2.260833502,138.8197327,
2.262500048,137.0603638,
2.264166832,137.1340027,
2.265833378,136.2179108,
2.267500162,138.7613068,
2.269166708,138.4147644,
2.270833254,138.3787537,
2.272500038,137.1865082,
2.274166584,138.5188293,
2.275833368,138.6075439,
2.277500153,137.5070343,
2.279166698,138.5749817,
2.280833483,137.6063995,
2.282500029,137.8591003,
2.284166813,136.7891541,
2.285833597,137.7655029,
2.287499905,138.7606659,
2.289166689,137.6896362,
2.290833235,137.5417786,
2.292500019,138.5566559,
2.294166803,138.3647003,
2.295833349,137.3695221,
2.297500134,137.4840851,
2.299166679,138.1954193,
2.300833464,138.0683594,
2.302500248,137.9519196,
2.304166555,138.7638397,
2.30583334,137.969223,
2.307499886,137.8236237,
2.30916667,137.8414764,
2.310833454,138.098877,
2.3125,138.6981049,
2.314166784,138.2845917,
2.31583333,138.0923004,
2.317500114,139.0105591,
2.319166899,139.0149384,
2.320833445,137.4988098,
2.32249999,139.0594025,
2.324166536,137.5027618,
2.325833321,138.0047913,
2.327500105,137.5315704,
2.329166651,137.9216156,
2.330833435,139.8305969,
2.332499981,139.5242615,
2.334166765,137.6937256,
2.335833549,138.9576721,
2.337500095,139.0996857,
2.33916688,138.8338318,
2.340833187,137.9105225,
2.342499971,137.3841248,
2.344166756,138.7306061,
2.345833302,139.0826263,
2.347500086,139.3067474,
2.349166632,138.7012939,
2.350833416,139.1261139,
2.3525002,139.6334686,
2.354166746,138.811142,
2.35583353,137.581665,
2.357499838,138.7866211,
2.359166622,138.5293427,
2.360833406,138.7527161,
2.362499952,137.8632507,
2.364166737,138.5726776,
2.365833282,138.1642151,
2.367500067,138.352356,
2.369166851,138.6768951,
2.370833397,138.8990631,
2.372500181,139.1365509,
2.374166727,140.0435486,
2.375833273,139.2192993,
2.377500057,139.5319672,
2.379166603,139.0775299,
2.380833387,138.5749664,
2.382499933,138.4224396,
2.384166718,138.60112,
2.385833502,138.989563,
2.387500048,138.8191223,
2.389166832,138.6905365,
2.390833378,139.8222961,
2.392500162,138.4674683,
2.394166708,138.7961273,
2.395833254,139.1993713,
2.397500038,139.6420288,
2.399166584,139.5531158,
2.400833368,138.6306,
2.402500153,138.1014404,
2.404166698,138.4335785,
2.405833483,139.8835449,
2.407500029,138.0348969,
2.409166813,137.2829742,
2.410833597,137.9598846,
2.412499905,139.2963257,
2.414166689,139.2900696,
2.415833235,139.2407379,
2.417500019,139.4313202,
2.419166803,139.3849945,
2.420833349,138.6721039,
2.422500134,138.1127167,
2.424166679,137.6423492,
2.425833464,138.9449158,
2.427500248,138.8828735,
2.429166555,139.5008545,
2.43083334,138.978653,
2.432499886,139.611908,
2.43416667,138.9297333,
2.435833454,138.6067505,
2.4375,139.7273254,
2.439166784,139.7049103,
2.44083333,139.3861237,
2.442500114,137.8041687,
2.444166899,138.6933136,
2.445833445,138.1363678,
2.44749999,138.4818268,
2.449166536,139.4633789,
2.450833321,139.2470551,
2.452500105,140.1815338,
2.454166651,139.3800507,
2.455833435,139.6317596,
2.457499981,138.6360016,
2.459166765,138.9688263,
2.460833549,138.7562866,
2.462500095,138.8935547,
2.46416688,139.368576,
2.465833187,138.8660126,
2.467499971,139.2242126,
2.469166756,139.319046,
2.470833302,139.4380951,
2.472500086,138.8535919,
2.474166632,138.598877,
2.475833416,139.1286316,
2.4775002,139.6917877,
2.479166746,138.93367,
2.48083353,139.2641602,
2.482499838,139.1895447,
2.484166622,140.539093,
2.485833406,140.1203308,
2.487499952,138.7705231,
2.489166737,138.898407,
2.490833282,139.1793213,
2.492500067,140.0836945,
2.494166851,139.179718,
2.495833397,139.9251251,
2.497500181,139.1608276,
2.499166727,140.0728912,
2.500833273,138.978302,
2.502500057,139.3002472,
2.504166603,139.8863678,
2.505833387,139.3378906,
2.507499933,138.6901398,
2.509166718,138.7975769,
2.510833502,140.5691223,
2.512500048,139.1129761,
2.514166832,138.5427094,
2.515833378,139.6659851,
2.517500162,139.1610565,
2.519166708,139.0899353,
2.520833254,140.0513916,
2.522500038,140.3837128,
2.524166584,139.0102844,
2.525833368,140.60495,
2.527500153,138.539093,
2.529166698,140.2691956,
2.530833483,139.771759,
2.532500029,138.118927,
2.534166813,139.1748352,
2.535833597,139.4252014,
2.537499905,139.1766663,
2.539166689,140.3791351,
2.540833235,140.4088898,
2.542500019,139.44841,
2.544166803,139.9768982,
2.545833349,139.7009125,
2.547500134,139.735611,
2.549166679,139.7744293,
2.550833464,139.7962646,
2.552500248,140.9706573,
2.554166555,139.2434998,
2.55583334,140.4477997,
2.557499886,137.7124481,
2.55916667,140.2178192,
2.560833454,139.9076233,
2.5625,140.9499207,
2.564166784,138.6507416,
2.56583333,139.7866669,
2.567500114,140.2663574,
2.569166899,140.437088,
2.570833445,140.2979584,
2.57249999,141.3433838,
2.574166536,139.3285065,
2.575833321,140.4357452,
2.577500105,140.4210663,
2.579166651,140.7136993,
2.580833435,140.274292,
2.582499981,139.7610016,
2.584166765,138.9582977,
2.585833549,139.1438599,
2.587500095,139.8286743,
2.58916688,140.0623779,
2.590833187,139.1532288,
2.592499971,140.1248474,
2.594166756,139.8213348,
2.595833302,140.8222504,
2.597500086,140.4233551,
2.599166632,139.861557,
2.600833416,139.8820038,
2.6025002,139.3660736,
2.604166746,139.3405914,
2.60583353,139.4253082,
2.607499838,139.0560608,
2.609166622,140.6469269,
2.610833406,140.0875244,
2.612499952,140.0510101,
2.614166737,140.3556824,
2.615833282,140.1163788,
2.617500067,139.4419708,
2.619166851,140.5258179,
2.620833397,140.3796082,
2.622500181,140.3309937,
2.624166727,139.7875519,
2.625833273,139.736496,
2.627500057,140.3712463,
2.629166603,140.0834961,
2.630833387,140.6296997,
2.632499933,139.7844391,
2.634166718,140.3547516,
2.635833502,140.219162,
2.637500048,140.1364899,
2.639166832,139.9395447,
2.640833378,139.8356018,
2.642500162,140.2794189,
2.644166708,140.9295044,
2.645833254,139.7438965,
2.647500038,140.929657,
2.649166584,139.9055939,
2.650833368,140.4656525,
2.652500153,140.3291473,
2.654166698,139.6490631,
2.655833483,139.2366943,
2.657500029,139.7594757,
2.659166813,138.846817,
2.660833597,139.7427368,
2.662499905,140.9689331,
2.664166689,139.8560181,
2.665833235,140.1204224,
2.667500019,140.8666382,
2.669166803,140.5183868,
2.670833349,140.6345978,
2.672500134,139.6836243,
2.674166679,138.9763184,
2.675833464,140.5691223,
2.677500248,140.4475861,
2.679166555,139.7723389,
2.68083334,141.135849,
2.682499886,139.859848,
2.68416667,140.0923767,
2.685833454,139.8175354,
2.6875,140.2456665,
2.689166784,140.1186066,
2.69083333,139.1386566,
2.692500114,139.7292633,
2.694166899,140.0705414,
2.695833445,140.9687195,
2.69749999,140.4109039,
2.699166536,141.3300018,
2.700833321,139.826828,
2.702500105,140.6571655,
2.704166651,140.6495819,
2.705833435,140.447876,
2.707499981,141.1232147,
2.709166765,140.6536713,
2.710833549,140.7905273,
2.712500095,140.4137268,
2.71416688,140.5921326,
2.715833187,140.4874268,
2.717499971,141.3812866,
2.719166756,140.4886475,
2.720833302,141.2889404,
2.722500086,140.2732544,
2.724166632,139.815918,
2.725833416,140.765564,
2.7275002,141.1793518,
2.729166746,140.6532745,
2.73083353,140.2793427,
2.732499838,141.3997192,
2.734166622,140.3996124,
2.735833406,140.3292999,
2.737499952,140.8416748,
2.739166737,140.9164886,
2.740833282,141.2674561,
2.742500067,140.3337555,
2.744166851,140.5257263,
2.745833397,140.5007019,
2.747500181,141.0436707,
2.749166727,140.7472382,
2.750833273,140.8359528,
2.752500057,139.5428009,
2.754166603,141.1765442,
2.755833387,141.2921143,
2.757499933,141.2292786,
2.759166718,141.6454315,
2.760833502,141.4556274,
2.762500048,141.1276093,
2.764166832,141.7003326,
2.765833378,142.7836456,
2.767500162,141.0762177,
2.769166708,139.7358093,
2.770833254,140.928772,
2.772500038,140.9319916,
2.774166584,140.1577759,
2.775833368,140.7674103,
2.777500153,140.5784149,
2.779166698,141.0039215,
2.780833483,139.845108,
2.782500029,140.8072968,
2.784166813,141.2731781,
2.785833597,140.3639984,
2.787499905,141.0290222,
2.789166689,142.0477905,
2.790833235,141.1462555,
2.792500019,139.9403992,
2.794166803,140.8303833,
2.795833349,140.3258972,
2.797500134,139.9916077,
2.799166679,140.8734283,
2.800833464,141.4163818,
2.802500248,141.190094,
2.804166555,140.7085724,
2.80583334,140.6343994,
2.807499886,140.7672577,
2.80916667,141.8179932,
2.810833454,141.2979279,
2.8125,141.0122986,
2.814166784,140.5230713,
2.81583333,141.370575,
2.817500114,140.9656525,
2.819166899,141.179306,
2.820833445,141.7248383,
2.82249999,140.6517029,
2.824166536,140.3172913,
2.825833321,140.4552765,
2.827500105,141.2284241,
2.829166651,140.8987427,
2.830833435,140.9432831,
2.832499981,141.6174622,
2.834166765,141.8097839,
2.835833549,140.6012573,
2.837500095,140.8929291,
2.83916688,140.7867737,
2.840833187,141.0510559,
2.842499971,140.6789093,
2.844166756,141.9179382,
2.845833302,140.7653046,
2.847500086,140.981308,
2.849166632,141.2529144,
2.850833416,140.8062897,
2.8525002,140.1983643,
2.854166746,141.8659363,
2.85583353,140.6786957,
2.857499838,142.0844116,
2.859166622,140.9724274,
2.860833406,141.3145599,
2.862499952,140.764389,
2.864166737,141.0735168,
2.865833282,140.69487,
2.867500067,140.7363586,
2.869166851,140.8398895,
2.870833397,141.2305756,
2.872500181,140.6344604,
2.874166727,140.6669617,
2.875833273,141.7484741,
2.877500057,141.191803,
2.879166603,141.4510956,
2.880833387,141.5319519,
2.882499933,141.1372681,
2.884166718,142.5990753,
2.885833502,142.1919708,
2.887500048,141.2965698,
2.889166832,139.2750854,
2.890833378,141.204834,
2.892500162,141.0384979,
2.894166708,141.823822,
2.895833254,139.3606262,
2.897500038,140.481308,
2.899166584,143.0546875,
2.900833368,140.8880615,
2.902500153,140.8480835,
2.904166698,141.5998688,
2.905833483,141.8792572,
2.907500029,140.9068146,
2.909166813,141.1137848,
2.910833597,142.1807709,
2.912499905,140.5903625,
2.914166689,141.6680145,
2.915833235,140.1947937,
2.917500019,142.6144714,
2.919166803,141.765564,
2.920833349,141.3517456,
2.922500134,140.1243286,
2.924166679,141.8059692,
2.925833464,140.1898193,
2.927500248,141.6273499,
2.929166555,141.3148499,
2.93083334,142.2931824,
2.932499886,141.1207428,
2.93416667,141.9045105,
2.935833454,141.2756805,
2.9375,141.3050537,
2.939166784,140.6407166,
2.94083333,140.4945679,
2.942500114,139.635025,
2.944166899,141.5679016,
2.945833445,141.2460632,
2.94749999,139.8566895,
2.949166536,140.754776,
2.950833321,141.1073914,
2.952500105,140.7941589,
2.954166651,141.0972137,
2.955833435,142.1844177,
2.957499981,141.455368,
2.959166765,141.2189178,
2.960833549,141.4809113,
2.962500095,140.8715515,
2.96416688,141.3681488,
2.965833187,142.0736084,
2.967499971,141.2480164,
2.969166756,140.2563019,
2.970833302,141.6139984,
2.972500086,141.9110413,
2.974166632,140.7632751,
2.975833416,142.0531311,
2.9775002,142.0967712,
2.979166746,141.4585114,
2.98083353,140.3685913,
2.982499838,142.1494293,
2.984166622,142.8511047,
2.985833406,140.7010803,
2.987499952,140.7597656,
2.989166737,141.6231689,
2.990833282,140.5615082,
2.992500067,142.4057465,
2.994166851,142.3293457,
2.995833397,142.184082,
2.997500181,141.8182678,
2.999166727,140.569931,
3.000833273,142.1205139,
3.002500057,142.3431854,
3.004166603,140.8327179,
3.005833387,140.5617523,
3.007499933,141.4757843,
3.009166718,140.3200226,
3.010833502,141.9520264,
3.012500048,140.0348511,
3.014166832,140.9283905,
3.015833378,141.3397675,
3.017500162,141.5478363,
3.019166708,141.3813629,
3.020833254,141.2728271,
3.022500038,142.4520264,
3.024166584,140.2882385,
3.025833368,141.091629,
3.027500153,140.9733582,
3.029166698,141.1488342,
3.030833483,139.4446106,
3.032500029,141.3919067,
3.034166813,140.9264221,
3.035833597,141.3534241,
3.037499905,141.5234375,
3.039166689,141.2528381,
3.040833235,142.5825043,
3.042500019,140.9230194,
3.044166803,142.0328979,
3.045833349,141.137085,
3.047500134,143.1779785,
3.049166679,140.9481659,
3.050833464,141.7123871,
3.052500248,141.7867432,
3.054166555,141.9976196,
3.05583334,140.833786,
3.057499886,141.7291412,
3.05916667,142.0837708,
3.060833454,140.7058258,
3.0625,140.7415314,
3.064166784,141.4853821,
3.06583333,141.3976746,
3.067500114,141.124939,
3.069166899,141.8046265,
3.070833445,141.5594482,
3.07249999,140.6194,
3.074166536,141.6707458,
3.075833321,141.1418304,
3.077500105,141.7443237,
3.079166651,141.6344452,
3.080833435,141.0549011,
3.082499981,142.9233551,
3.084166765,141.6491241,
3.085833549,141.2262115,
3.087500095,141.8735504,
3.08916688,141.2515411,
3.090833187,141.3803406,
3.092499971,141.3237915,
3.094166756,141.0885162,
3.095833302,141.5034943,
3.097500086,141.1697083,
3.099166632,141.4776154,
3.100833416,141.17453,
3.1025002,141.7650452,
3.104166746,141.5018768,
3.10583353,141.4524384,
3.107499838,142.0940857,
3.109166622,141.1880951,
3.110833406,141.6299896,
3.112499952,141.3410492,
3.114166737,141.8973541,
3.115833282,141.9020691,
3.117500067,142.0692749,

