1,,
Time (min),Intensity (a.u.),
0.0008333333535,47.54729843,
0.002500000177,47.87246323,
0.004166666884,48.11028671,
0.005833333358,47.87505722,
0.007500000298,47.65997314,
0.009166667238,48.02731323,
0.01083333418,48.17840576,
0.01250000019,48.16528702,
0.01416666713,47.86428833,
0.01583333313,48.31343079,
0.01750000194,48.19717026,
0.01916666701,47.64623642,
0.02083333395,48.00238037,
0.02250000089,47.52456284,
0.02416666783,46.93299866,
0.02583333477,47.58803177,
0.02749999985,47.50324631,
0.02916666679,48.63157272,
0.03083333373,48.06249237,
0.03250000253,47.61392975,
0.03416666761,48.15395737,
0.03583333641,48.68375397,
0.03750000149,48.14859009,
0.03916667029,48.49877548,
0.04083333537,47.91717148,
0.04250000045,47.85468674,
0.04416666925,47.68551636,
0.04583333433,48.03609085,
0.04750000313,47.6975975,
0.04916666821,47.77461624,
0.05083333328,48.1212883,
0.05250000209,47.90063095,
0.05416666716,46.88563538,
0.05583333597,48.27656555,
0.05750000104,48.12366104,
0.05916666612,47.43781662,
0.06083333492,48.06646729,
0.0625,47.01240158,
0.06416667253,48.44207001,
0.0658333376,47.97555161,
0.06750000268,47.96453857,
0.06916666776,47.63959885,
0.07083333284,48.55228806,
0.07249999791,48.55623245,
0.07416667044,47.58659363,
0.07583333552,47.94694901,
0.0775000006,47.727314,
0.07916666567,47.95197678,
0.08083333075,46.90956497,
0.08250000328,47.70442963,
0.08416666836,48.45552063,
0.08583333343,47.20191956,
0.08749999851,47.9769249,
0.08916666359,47.64952469,
0.09083333611,48.05718613,
0.09250000119,48.62419128,
0.09416666627,48.17856598,
0.09583333135,48.22692108,
0.09749999642,47.63683701,
0.09916666895,48.34049988,
0.100833334,48.21014786,
0.1024999991,48.31868362,
0.1041666642,48.22286224,
0.1058333293,47.78768539,
0.1075000018,48.8950119,
0.1091666669,47.47204971,
0.1108333319,48.08880615,
0.112499997,47.35738373,
0.1141666621,47.94763565,
0.1158333346,48.00310898,
0.1174999997,47.50785446,
0.1191666648,47.46969223,
0.1208333299,48.70350647,
0.1224999949,48.03761673,
0.1241666749,47.71601105,
0.1258333325,48.04819107,
0.1274999976,47.56875992,
0.1291666627,47.26671219,
0.1308333278,47.79680252,
0.1325000077,47.75941086,
0.1341666728,48.29943466,
0.1358333379,47.14315033,
0.137500003,48.20747375,
0.1391666681,47.74717712,
0.1408333331,48.57435226,
0.1424999982,48.24749756,
0.1441666782,47.49616623,
0.1458333284,48.41163254,
0.1475000083,47.34696579,
0.1491666585,47.81966019,
0.1508333385,48.03198242,
0.1525000036,47.95820618,
0.1541666687,48.30923843,
0.1558333337,47.60305023,
0.1574999988,47.74232483,
0.1591666639,47.95501328,
0.1608333439,48.07104492,
0.162499994,47.62218475,
0.164166674,47.88512039,
0.1658333242,47.85484314,
0.1675000042,47.29188156,
0.1691666692,47.75684738,
0.1708333343,47.60520554,
0.1724999994,48.09139633,
0.1741666645,47.24870682,
0.1758333296,48.33165359,
0.1775000095,47.52890396,
0.1791666597,48.2780838,
0.1808333397,47.52279282,
0.1824999899,48.40616989,
0.1841666698,48.21875763,
0.1858333498,49.01190567,
0.1875,47.8009491,
0.18916668,48.42156982,
0.1908333302,47.64753342,
0.1925000101,48.04252625,
0.1941666752,47.57684326,
0.1958333403,48.08695984,
0.1975000054,48.27293396,
0.1991666704,47.60599136,
0.2008333355,47.87199402,
0.2025000155,47.99320221,
0.2041666657,48.39047241,
0.2058333457,47.30738831,
0.2074999958,47.45716095,
0.2091666758,48.39168167,
0.2108333409,47.68523407,
0.212500006,47.86179352,
0.214166671,47.95379257,
0.2158333361,48.21611786,
0.2175000012,47.97054291,
0.2191666812,48.40222931,
0.2208333313,47.77561188,
0.2225000113,47.88929749,
0.2241666615,47.86380005,
0.2258333415,47.36845016,
0.2275000066,47.34236908,
0.2291666716,49.02220535,
0.2308333367,47.69391251,
0.2325000018,47.92546463,
0.2341666669,47.74454117,
0.2358333468,48.0793457,
0.237499997,47.93011475,
0.239166677,47.81570053,
0.2408333272,47.36851501,
0.2425000072,47.90046692,
0.2441666722,48.15936661,
0.2458333373,47.71243286,
0.2475000024,48.24550629,
0.2491666675,48.13249207,
0.2508333325,47.83442688,
0.2524999976,47.69329071,
0.2541666627,47.91408539,
0.2558333278,47.60906219,
0.2574999928,47.4371109,
0.2591666579,48.00364685,
0.2608333528,47.43488312,
0.2624999881,47.81427383,
0.264166683,48.15073013,
0.2658333182,47.64265823,
0.2675000131,48.4953537,
0.2691666484,48.2432785,
0.2708333433,47.65399551,
0.2725000083,48.42976761,
0.2741666734,47.51811981,
0.2758333385,47.68623734,
0.2775000036,47.61159897,
0.2791666687,47.82963181,
0.2808333337,48.86050034,
0.2824999988,48.29939651,
0.2841666937,47.96364975,
0.285833329,47.58436966,
0.287499994,47.76543427,
0.2891666591,48.24972916,
0.290833354,47.81875992,
0.2925000191,47.99409866,
0.2941666543,47.93354797,
0.2958333194,48.03863525,
0.2975000143,48.29383087,
0.2991666794,47.76815414,
0.3008333445,48.06916809,
0.3024999797,47.9907074,
0.3041666746,47.32054901,
0.3058333397,48.30311584,
0.3075000048,48.1777153,
0.3091666996,48.06195068,
0.3108333349,47.51390457,
0.3125,47.5980072,
0.3141666651,47.54730225,
0.31583336,47.51501083,
0.317500025,47.96792603,
0.3191666603,47.45410538,
0.3208333254,48.48975754,
0.3225000203,47.68483734,
0.3241666853,48.19609833,
0.3258333504,48.07286835,
0.3274999857,47.62278366,
0.3291666806,48.09118271,
0.3308333457,47.65007782,
0.3325000107,48.01290512,
0.3341666758,47.90681458,
0.3358333409,47.94033051,
0.337500006,48.30332565,
0.339166671,47.51676178,
0.3408333361,47.92111588,
0.342500031,47.65073395,
0.3441666663,47.92887878,
0.3458333313,48.12361908,
0.3474999964,47.87989426,
0.3491666913,47.8316803,
0.3508333564,47.73734283,
0.3524999917,47.90408707,
0.3541666567,48.36572647,
0.3558333516,47.70430756,
0.3575000167,47.86808395,
0.3591666818,47.54648972,
0.360833317,47.50978851,
0.3625000119,48.11917877,
0.364166677,47.81784821,
0.3658333421,47.44133759,
0.3675000072,47.84181976,
0.3691666722,48.0788269,
0.3708333373,47.63181305,
0.3725000024,47.81288528,
0.3741666675,47.98622894,
0.3758333623,47.23048401,
0.3774999976,47.56905746,
0.3791666627,47.8707428,
0.3808333278,48.64754868,
0.3825000226,47.20107269,
0.3841666877,47.94026184,
0.385833323,47.56003571,
0.3874999881,47.63596725,
0.389166683,47.7953949,
0.390833348,48.02713394,
0.3925000131,48.43778229,
0.3941666484,48.30373001,
0.3958333433,48.12512207,
0.3975000083,47.677845,
0.3991666734,46.98469162,
0.4008333385,47.77802277,
0.4025000036,47.48394012,
0.4041666687,47.98308945,
0.4058333337,48.35154343,
0.4074999988,48.07825851,
0.4091666937,48.09034729,
0.410833329,48.00028992,
0.412499994,48.05363464,
0.4141666591,48.40949631,
0.415833354,48.00738144,
0.4175000191,47.82906342,
0.4191666543,47.36008453,
0.4208333194,47.97032547,
0.4225000143,48.11174774,
0.4241666794,47.99113846,
0.4258333445,48.10477066,
0.4274999797,47.41704178,
0.4291666746,47.64336777,
0.4308333397,47.59528732,
0.4325000048,47.95849228,
0.4341666996,48.05606461,
0.4358333349,47.45325089,
0.4375,47.62595367,
0.4391666651,47.7580719,
0.44083336,47.9250145,
0.442500025,47.14065933,
0.4441666603,47.43466187,
0.4458333254,48.1631279,
0.4475000203,47.84576416,
0.4491666853,47.43704224,
0.4508333504,47.47382736,
0.4524999857,47.73690796,
0.4541666806,47.57616425,
0.4558333457,47.65984344,
0.4575000107,47.84962463,
0.4591666758,48.08937454,
0.4608333409,47.96961975,
0.462500006,48.04012299,
0.464166671,48.47708511,
0.4658333361,47.6806221,
0.467500031,48.12712479,
0.4691666663,48.0280304,
0.4708333313,47.64141464,
0.4724999964,47.63775253,
0.4741666913,48.14982986,
0.4758333564,47.62247849,
0.4774999917,47.79079437,
0.4791666567,48.0897522,
0.4808333516,47.82201385,
0.4825000167,48.00947571,
0.4841666818,47.95300293,
0.485833317,48.07180786,
0.4875000119,47.29808044,
0.489166677,48.08956909,
0.4908333421,47.43054581,
0.4925000072,47.87623596,
0.4941666722,48.18959045,
0.4958333373,47.93447113,
0.4975000024,47.78149033,
0.4991666675,47.80952072,
0.5008333325,47.89370728,
0.5024999976,47.50079727,
0.5041666627,47.85332489,
0.5058333278,48.11582184,
0.5074999928,48.29726028,
0.5091666579,48.10784531,
0.510833323,48.193573,
0.5124999881,47.3446846,
0.5141666532,46.97099686,
0.5158333182,47.6857338,
0.5175000429,47.20285797,
0.5191666484,47.96250534,
0.5208333135,48.34405899,
0.5224999785,46.88972473,
0.5241667032,47.64652252,
0.5258333683,47.94135284,
0.5274999738,48.013237,
0.5291666389,47.66578674,
0.5308333635,48.45895386,
0.5325000286,47.91545486,
0.5341666341,47.35763931,
0.5358333588,47.80552673,
0.5375000238,48.23829269,
0.5391666889,48.6619606,
0.540833354,48.05588531,
0.5424999595,47.3883667,
0.5441666842,47.98672485,
0.5458333492,47.21740723,
0.5475000143,47.94438553,
0.5491666794,48.26848602,
0.5508333445,47.94141769,
0.5525000095,48.10066605,
0.5541666746,47.29895782,
0.5558333993,47.45803833,
0.5575000048,47.770401,
0.5591666698,47.67492676,
0.5608333349,47.54565811,
0.5625,47.9875679,
0.5641667247,48.06474686,
0.5658333302,47.52568436,
0.5674999952,47.96716309,
0.5691667199,47.60950851,
0.5708333254,48.20359802,
0.5725000501,47.05854416,
0.5741666555,47.88771057,
0.5758333206,47.72503662,
0.5775000453,47.84231567,
0.5791666508,48.10126495,
0.5808333755,48.03853607,
0.5825000405,47.96660614,
0.584166646,48.14521408,
0.5858333707,48.43526459,
0.5874999762,48.15406418,
0.5891667008,47.93863297,
0.5908333659,47.61847687,
0.5924999714,48.14501953,
0.5941666961,48.05160904,
0.5958333611,48.07703781,
0.5975000262,47.87218094,
0.5991666913,47.69820404,
0.6008332968,47.83771515,
0.6025000215,48.27413559,
0.6041666865,47.57934952,
0.6058333516,48.05424118,
0.6075000167,48.2882309,
0.6091666818,47.79902649,
0.6108333468,47.62945938,
0.6125000119,47.59229279,
0.614166677,47.99938202,
0.6158333421,47.63773727,
0.6175000072,47.97296524,
0.6191666722,48.26281357,
0.6208333373,47.54666138,
0.622500062,47.97888947,
0.6241666675,48.36991119,
0.6258333325,47.83520126,
0.6274999976,47.32167816,
0.6291666627,47.62309265,
0.6308333874,48.25424957,
0.6324999928,47.32453918,
0.6341666579,48.71099091,
0.6358333826,47.80233383,
0.6374999881,48.177845,
0.6391667128,47.46930313,
0.6408333182,47.73474884,
0.6424999833,48.15386581,
0.644166708,47.2148819,
0.6458333135,47.46276855,
0.6475000381,47.66760254,
0.6491667032,48.07617569,
0.6508333087,48.10571289,
0.6525000334,47.77005768,
0.6541666389,47.90589142,
0.6558333635,47.89702988,
0.6575000286,47.85580444,
0.6591666341,48.23732376,
0.6608333588,47.53567123,
0.6625000238,47.79418564,
0.6641666889,48.03968811,
0.665833354,48.32325745,
0.6674999595,48.03551102,
0.6691666842,47.95963669,
0.6708333492,47.31162262,
0.6725000143,47.72266769,
0.6741666794,47.69402313,
0.6758333445,47.90842438,
0.6775000095,47.68336105,
0.6791666746,46.97740936,
0.6808333993,47.86722565,
0.6825000048,48.12824249,
0.6841666698,48.13568497,
0.6858333349,47.27922821,
0.6875,47.64727402,
0.6891667247,46.95420074,
0.6908333302,47.75964737,
0.6924999952,47.70204163,
0.6941667199,47.55450439,
0.6958333254,47.66994858,
0.6975000501,47.78334045,
0.6991666555,47.6019516,
0.7008333206,47.57947922,
0.7025000453,47.82787704,
0.7041666508,47.48687363,
0.7058333755,47.8336792,
0.7075000405,47.91091919,
0.709166646,47.69049835,
0.7108333707,47.72061157,
0.7124999762,47.97032166,
0.7141667008,48.39708328,
0.7158333659,47.53813934,
0.7174999714,47.89253235,
0.7191666961,47.39592361,
0.7208333611,47.07962036,
0.7225000262,48.0867157,
0.7241666913,47.83412552,
0.7258332968,48.36545181,
0.7275000215,47.59420013,
0.7291666865,47.91985321,
0.7308333516,47.05016327,
0.7325000167,47.87103271,
0.7341666818,48.3794632,
0.7358333468,48.10440826,
0.7375000119,47.89588547,
0.739166677,47.82177734,
0.7408333421,47.55741501,
0.7425000072,47.47425842,
0.7441666722,48.20705032,
0.7458333373,47.42457581,
0.747500062,47.94939804,
0.7491666675,48.00413132,
0.7508333325,47.61183548,
0.7524999976,47.94202805,
0.7541666627,47.73336029,
0.7558333874,48.37139893,
0.7574999928,48.41579437,
0.7591666579,47.51974487,
0.7608333826,47.85942841,
0.7624999881,47.23431396,
0.7641667128,47.38871765,
0.7658333182,47.76604462,
0.7674999833,48.4574852,
0.769166708,48.61061096,
0.7708333135,48.0842514,
0.7725000381,48.13031387,
0.7741667032,47.5439949,
0.7758333087,48.13787079,
0.7775000334,47.95063782,
0.7791666389,47.75722504,
0.7808333635,47.74069214,
0.7825000286,47.78316498,
0.7841666341,47.59537125,
0.7858333588,47.49297714,
0.7875000238,47.8898201,
0.7891666889,47.47904205,
0.790833354,47.91507339,
0.7924999595,47.93126678,
0.7941666842,47.3486557,
0.7958333492,47.95649719,
0.7975000143,47.65870667,
0.7991666794,48.0647583,
0.8008333445,48.0487709,
0.8025000095,46.94340897,
0.8041666746,47.53957748,
0.8058333993,48.03621292,
0.8075000048,47.57902527,
0.8091666698,47.58933258,
0.8108333349,48.00860596,
0.8125,47.70398331,
0.8141667247,47.61420441,
0.8158333302,47.5587616,
0.8174999952,47.70955276,
0.8191667199,47.18539047,
0.8208333254,48.24123383,
0.8225000501,47.95715714,
0.8241666555,47.89782715,
0.8258333206,47.89103699,
0.8275000453,47.93034744,
0.8291666508,47.61904907,
0.8308333755,47.96718597,
0.8325000405,48.32399368,
0.834166646,48.3089447,
0.8358333707,48.04227829,
0.8374999762,47.67082596,
0.8391667008,48.3274231,
0.8408333659,47.92235947,
0.8424999714,48.04706192,
0.8441666961,48.0537529,
0.8458333611,47.49260712,
0.8475000262,48.37084961,
0.8491666913,48.24279404,
0.8508332968,47.3249054,
0.8525000215,47.67724609,
0.8541666865,47.61282349,
0.8558333516,47.51031876,
0.8575000167,47.76351547,
0.8591666818,47.52301788,
0.8608333468,48.22160721,
0.8625000119,47.98246765,
0.864166677,48.03645325,
0.8658333421,48.08104324,
0.8675000072,47.41405487,
0.8691666722,47.39221191,
0.8708333373,47.92528152,
0.872500062,47.81506348,
0.8741666675,47.69879532,
0.8758333325,47.72081757,
0.8774999976,47.36829376,
0.8791666627,48.30886459,
0.8808333874,47.2156105,
0.8824999928,47.83930206,
0.8841666579,48.04907227,
0.8858333826,48.18591309,
0.8874999881,47.85541534,
0.8891667128,47.98714447,
0.8908333182,47.84788132,
0.8924999833,47.71082306,
0.894166708,48.07810974,
0.8958333135,48.06728363,
0.8975000381,47.77483749,
0.8991667032,48.15174484,
0.9008333087,47.56788635,
0.9025000334,47.39902878,
0.9041666389,48.22730255,
0.9058333635,47.72283936,
0.9075000286,48.11050034,
0.9091666341,47.80722427,
0.9108333588,48.2628479,
0.9125000238,47.79055405,
0.9141666889,48.22796631,
0.915833354,47.94255066,
0.9174999595,48.22209167,
0.9191666842,48.45898056,
0.9208333492,48.00189209,
0.9225000143,48.04064178,
0.9241666794,47.84893799,
0.9258333445,47.63506317,
0.9275000095,47.46799088,
0.9291666746,47.50266647,
0.9308333993,47.92620468,
0.9325000048,48.32429886,
0.9341666698,47.07210159,
0.9358333349,47.54743958,
0.9375,47.79881668,
0.9391667247,47.76139069,
0.9408333302,47.67556763,
0.9424999952,47.53030396,
0.9441667199,47.71083832,
0.9458333254,47.17246628,
0.9475000501,48.34358597,
0.9491666555,48.55717468,
0.9508333206,47.51991653,
0.9525000453,48.32243729,
0.9541666508,47.41106415,
0.9558333755,47.3067894,
0.9575000405,47.79346848,
0.959166646,48.46371841,
0.9608333707,47.68508148,
0.9624999762,48.13978577,
0.9641667008,47.90243149,
0.9658333659,47.34675217,
0.9674999714,47.99098587,
0.9691666961,48.11588287,
0.9708333611,47.95287323,
0.9725000262,47.90727234,
0.9741666913,47.90368271,
0.9758332968,47.608284,
0.9775000215,47.68981934,
0.9791666865,47.27924347,
0.9808333516,47.6132164,
0.9825000167,48.08279037,
0.9841666818,47.30211639,
0.9858333468,48.03155899,
0.9875000119,47.56074905,
0.989166677,48.73972321,
0.9908333421,47.54194641,
0.9925000072,47.51890182,
0.9941666722,47.52273941,
0.9958333373,48.02453232,
0.997500062,47.59457779,
0.9991666675,48.29607391,
1.000833273,48.2615242,
1.002500057,47.39577103,
1.004166722,47.13529587,
1.005833387,48.00903702,
1.007500052,48.21181107,
1.009166598,48.50070572,
1.010833383,47.6353569,
1.012500048,48.03310013,
1.014166713,47.92896652,
1.015833378,47.66636658,
1.017500043,48.29883957,
1.019166708,48.02837753,
1.020833373,47.84397888,
1.022500038,47.26994705,
1.024166703,48.07997513,
1.025833368,48.02135086,
1.027500033,47.98299026,
1.029166698,48.06657791,
1.030833364,47.82386017,
1.032500029,47.5098114,
1.034166694,48.27640152,
1.035833359,47.49128342,
1.037500024,47.97882843,
1.039166689,47.91249847,
1.040833354,47.75039673,
1.042500019,47.652771,
1.044166684,47.58321762,
1.045833349,47.57381058,
1.047500014,47.87457275,
1.049166679,47.52775192,
1.050833344,47.89491653,
1.05250001,47.78711319,
1.054166675,47.70396805,
1.05583334,47.9197464,
1.057500005,48.27835464,
1.05916667,48.02735901,
1.060833335,47.52643585,
1.0625,48.6124115,
1.064166665,47.49779129,
1.06583333,47.68612289,
1.067499995,48.59715271,
1.06916666,47.75689316,
1.070833325,47.78436661,
1.07249999,47.97694016,
1.074166775,47.73072815,
1.07583344,47.64242172,
1.077499986,48.13811111,
1.079166651,48.23568344,
1.080833316,47.77306366,
1.0825001,47.0983963,
1.084166765,48.26639938,
1.085833311,48.17105865,
1.087499976,48.15965652,
1.089166641,47.25497055,
1.090833426,48.48757172,
1.092500091,47.57355881,
1.094166636,48.30578232,
1.095833302,48.57038116,
1.097499967,47.86268616,
1.099166751,47.34124756,
1.100833416,47.85113144,
1.102500081,47.77717209,
1.104166627,47.46328354,
1.105833292,47.21207428,
1.107500076,45.3080864,
1.109166741,51.44067383,
1.110833406,40.58663177,
1.112499952,53.01753998,
1.114166617,45.5817337,
1.115833402,56.66744232,
1.117500067,55.16644287,
1.119166732,55.2963829,
1.120833278,52.6159668,
1.122499943,54.0817337,
1.124166727,57.379879,
1.125833392,49.74644852,
1.127500057,61.43164825,
1.129166722,61.56529999,
1.130833268,62.05442429,
1.132500052,63.43674469,
1.134166718,63.56185532,
1.135833383,64.89477539,
1.137500048,65.74905396,
1.139166594,66.29869843,
1.140833378,66.50380707,
1.142500043,67.99913025,
1.144166708,68.48051453,
1.145833373,68.89263153,
1.147499919,69.86941528,
1.149166703,70.38961029,
1.150833368,70.97133636,
1.152500033,72.01231384,
1.154166698,71.63167572,
1.155833364,73.66416168,
1.157500029,73.70898438,
1.159166694,73.97387695,
1.160833359,74.86746216,
1.162500024,75.11730957,
1.164166689,75.87308502,
1.165833354,77.06684113,
1.167500019,77.06528473,
1.169166684,76.69174194,
1.170833349,77.06317902,
1.172500014,78.37654877,
1.174166799,79.34243011,
1.175833344,79.13608551,
1.17750001,79.93911743,
1.179166675,80.83441925,
1.18083334,80.44602966,
1.182500124,81.49185944,
1.18416667,81.83095551,
1.185833335,82.28609467,
1.1875,82.59863281,
1.189166665,83.63986206,
1.190833449,83.54740906,
1.192499995,83.67856598,
1.19416666,83.42541504,
1.195833325,84.29616547,
1.19749999,84.4342041,
1.199166775,86.67816162,
1.20083344,85.50950623,
1.202499986,86.86949158,
1.204166651,86.22572327,
1.205833316,87.30628204,
1.2075001,87.35597229,
1.209166765,87.81723022,
1.210833311,87.18540192,
1.212499976,87.65631866,
1.214166641,88.07843018,
1.215833426,89.0417099,
1.217500091,89.516716,
1.219166636,90.10128784,
1.220833302,89.34178162,
1.222499967,89.40222168,
1.224166751,90.1574707,
1.225833416,89.12733459,
1.227500081,90.57810211,
1.229166627,91.53865051,
1.230833292,90.59383392,
1.232500076,92.53526306,
1.234166741,92.29588318,
1.235833406,92.67134857,
1.237499952,93.07933044,
1.239166617,92.77931976,
1.240833402,93.6297226,
1.242500067,94.05686188,
1.244166732,94.15696716,
1.245833278,94.40592957,
1.247499943,94.02321625,
1.249166727,93.74794006,
1.250833392,94.71900177,
1.252500057,94.86099243,
1.254166722,95.530159,
1.255833268,96.66485596,
1.257500052,96.3394928,
1.259166718,96.34432983,
1.260833383,96.84553528,
1.262500048,96.58276367,
1.264166594,96.47129822,
1.265833378,96.68029022,
1.267500043,96.76502991,
1.269166708,98.30638123,
1.270833373,97.29775238,
1.272499919,97.29869843,
1.274166703,98.26967621,
1.275833368,98.56188202,
1.277500033,98.37902832,
1.279166698,98.29268646,
1.280833364,97.78668213,
1.282500029,99.37068939,
1.284166694,99.15732574,
1.285833359,99.68435669,
1.287500024,100.2330246,
1.289166689,100.5489273,
1.290833354,99.91387939,
1.292500019,100.7695313,
1.294166684,100.6483231,
1.295833349,101.518158,
1.297500014,100.7994614,
1.299166799,101.2593613,
1.300833344,100.9970093,
1.30250001,100.7662735,
1.304166675,102.401062,
1.30583334,101.9830322,
1.307500124,103.6699219,
1.30916667,102.4648666,
1.310833335,102.2531967,
1.3125,102.5435715,
1.314166665,102.694809,
1.315833449,102.3829575,
1.317499995,103.6956863,
1.31916666,103.2589645,
1.320833325,103.7019348,
1.32249999,104.3615417,
1.324166775,104.7611084,
1.32583344,104.8311615,
1.327499986,104.1269989,
1.329166651,105.3499908,
1.330833316,105.1685867,
1.3325001,104.7142792,
1.334166765,105.1456757,
1.335833311,105.5353317,
1.337499976,105.2703171,
1.339166641,106.1097488,
1.340833426,106.5719986,
1.342500091,106.4845047,
1.344166636,104.599205,
1.345833302,106.2713699,
1.347499967,106.3160172,
1.349166751,106.4459686,
1.350833416,106.4358673,
1.352500081,106.6910629,
1.354166627,106.3716049,
1.355833292,106.7150955,
1.357500076,106.4469223,
1.359166741,107.7965012,
1.360833406,107.8892899,
1.362499952,108.6541824,
1.364166617,108.470665,
1.365833402,108.6006927,
1.367500067,107.9577713,
1.369166732,108.7594452,
1.370833278,109.4325409,
1.372499943,108.0168915,
1.374166727,108.8862,
1.375833392,108.0285339,
1.377500057,109.7080536,
1.379166722,109.2025146,
1.380833268,109.2803421,
1.382500052,108.7396393,
1.384166718,109.8806686,
1.385833383,110.4185638,
1.387500048,109.5021439,
1.389166594,109.7913971,
1.390833378,109.3410645,
1.392500043,109.6785431,
1.394166708,110.2687988,
1.395833373,111.1679993,
1.397499919,110.1993484,
1.399166703,112.0012894,
1.400833368,110.9963684,
1.402500033,111.0925903,
1.404166698,111.3459396,
1.405833364,111.4333115,
1.407500029,111.0728912,
1.409166694,111.8546524,
1.410833359,110.8489838,
1.412500024,112.0536575,
1.414166689,112.9096985,
1.415833354,112.2000504,
1.417500019,112.4604492,
1.419166684,113.0781708,
1.420833349,113.4851074,
1.422500014,112.3668137,
1.424166799,112.5413895,
1.425833344,112.5259552,
1.42750001,112.5228195,
1.429166675,113.2481995,
1.43083334,112.0276489,
1.432500124,113.7603378,
1.43416667,113.2100143,
1.435833335,112.9443359,
1.4375,112.8673019,
1.439166665,113.6746521,
1.440833449,113.397377,
1.442499995,113.8424225,
1.44416666,114.3096237,
1.445833325,114.5732574,
1.44749999,113.0524445,
1.449166775,113.5059433,
1.45083344,113.6741104,
1.452499986,114.269783,
1.454166651,114.6254578,
1.455833316,115.3939209,
1.4575001,115.4892654,
1.459166765,114.7270432,
1.460833311,115.6510544,
1.462499976,115.4145966,
1.464166641,114.9638214,
1.465833426,115.9557571,
1.467500091,116.2946701,
1.469166636,115.6289063,
1.470833302,114.8081512,
1.472499967,116.0229645,
1.474166751,116.8952637,
1.475833416,115.6796188,
1.477500081,115.5096054,
1.479166627,115.1020432,
1.480833292,116.5035706,
1.482500076,116.8969879,
1.484166741,117.3914337,
1.485833406,115.4968033,
1.487499952,117.4066772,
1.489166617,117.0977173,
1.490833402,116.7734833,
1.492500067,117.0208893,
1.494166732,116.2211838,
1.495833278,117.1385651,
1.497499943,117.1284943,
1.499166727,116.7222824,
1.500833392,117.0640488,
1.502500057,117.2614212,
1.504166722,117.1556473,
1.505833268,117.1836624,
1.507500052,117.3194122,
1.509166718,117.8736115,
1.510833383,117.7685852,
1.512500048,118.0492172,
1.514166594,117.3496323,
1.515833378,117.8310699,
1.517500043,117.2136917,
1.519166708,118.5909958,
1.520833373,118.3171539,
1.522499919,118.6128235,
1.524166703,118.883934,
1.525833368,118.4519272,
1.527500033,118.4286423,
1.529166698,119.0626297,
1.530833364,118.1418457,
1.532500029,118.8009262,
1.534166694,119.8227463,
1.535833359,119.9586029,
1.537500024,119.0635605,
1.539166689,118.7727814,
1.540833354,119.0032654,
1.542500019,120.2278366,
1.544166684,118.8944016,
1.545833349,119.1763,
1.547500014,118.8742752,
1.549166799,120.0428162,
1.550833344,119.6445007,
1.55250001,120.4106903,
1.554166675,120.1266861,
1.55583334,119.9285202,
1.557500124,120.211113,
1.55916667,119.9262543,
1.560833335,120.9152679,
1.5625,120.7413635,
1.564166665,120.8246078,
1.565833449,121.1904144,
1.567499995,119.6891479,
1.56916666,121.2474136,
1.570833325,121.2356873,
1.57249999,120.8589554,
1.574166775,120.7676697,
1.57583344,121.2000732,
1.577499986,120.7576752,
1.579166651,121.6190872,
1.580833316,120.9386139,
1.5825001,121.7084961,
1.584166765,121.3572769,
1.585833311,122.0024261,
1.587499976,120.8997955,
1.589166641,121.3269882,
1.590833426,122.0872574,
1.592500091,121.4784775,
1.594166636,121.71772,
1.595833302,122.5348434,
1.597499967,121.5957947,
1.599166751,122.200943,
1.600833416,122.4165268,
1.602500081,121.8349762,
1.604166627,121.8413391,
1.605833292,121.7837601,
1.607500076,122.0769348,
1.609166741,122.3808746,
1.610833406,122.3977127,
1.612499952,122.645668,
1.614166617,122.3291626,
1.615833402,123.157959,
1.617500067,121.9066315,
1.619166732,123.0424957,
1.620833278,123.2015305,
1.622499943,123.0585709,
1.624166727,122.3763046,
1.625833392,123.6051178,
1.627500057,124.0647888,
1.629166722,122.8085709,
1.630833268,123.937561,
1.632500052,123.2393112,
1.634166718,123.4183044,
1.635833383,123.3085098,
1.637500048,122.5162354,
1.639166594,124.4656601,
1.640833378,123.8117599,
1.642500043,124.5884018,
1.644166708,124.224556,
1.645833373,125.0014725,
1.647499919,124.3320618,
1.649166703,122.8898621,
1.650833368,124.8649902,
1.652500033,124.2676926,
1.654166698,123.6453934,
1.655833364,123.0839767,
1.657500029,123.8892059,
1.659166694,124.4757309,
1.660833359,124.4510803,
1.662500024,125.6216888,
1.664166689,125.486969,
1.665833354,125.2775192,
1.667500019,124.0572128,
1.669166684,124.5926437,
1.670833349,125.2164993,
1.672500014,125.4260406,
1.674166799,125.1820297,
1.675833344,124.7993011,
1.67750001,124.3400497,
1.679166675,125.4068298,
1.68083334,125.5286026,
1.682500124,124.1384277,
1.68416667,124.1184845,
1.685833335,125.3450546,
1.6875,126.3082886,
1.689166665,125.5707855,
1.690833449,126.0948944,
1.692499995,126.6787949,
1.69416666,125.5917969,
1.695833325,125.8007584,
1.69749999,125.0126343,
1.699166775,125.5985489,
1.70083344,126.6453247,
1.702499986,126.1216431,
1.704166651,124.8080063,
1.705833316,126.9423523,
1.7075001,126.4633408,
1.709166765,125.6561279,
1.710833311,125.8359985,
1.712499976,125.6449661,
1.714166641,126.4865875,
1.715833426,126.7697525,
1.717500091,126.4161148,
1.719166636,125.5138702,
1.720833302,125.9419479,
1.722499967,126.9769058,
1.724166751,126.9058456,
1.725833416,126.5796585,
1.727500081,126.4668427,
1.729166627,126.9581757,
1.730833292,127.1832733,
1.732500076,126.9245453,
1.734166741,127.4738617,
1.735833406,126.9154129,
1.737499952,126.5877075,
1.739166617,126.6064072,
1.740833402,127.9568253,
1.742500067,127.259346,
1.744166732,125.9224548,
1.745833278,127.3315811,
1.747499943,128.0329437,
1.749166727,128.2631683,
1.750833392,126.3117676,
1.752500057,127.707077,
1.754166722,128.1322479,
1.755833268,126.4678268,
1.757500052,127.3327484,
1.759166718,127.5065842,
1.760833383,127.1487198,
1.762500048,127.4578094,
1.764166594,128.0177917,
1.765833378,127.3237762,
1.767500043,127.3053284,
1.769166708,127.8062897,
1.770833373,127.2976532,
1.772499919,127.7939987,
1.774166703,128.5304108,
1.775833368,127.7018204,
1.777500033,129.6440735,
1.779166698,128.635849,
1.780833364,127.3279037,
1.782500029,128.3495789,
1.784166694,128.3899536,
1.785833359,128.8226624,
1.787500024,127.6080475,
1.789166689,129.0417633,
1.790833354,129.5247803,
1.792500019,127.4024963,
1.794166684,128.8638,
1.795833349,128.9371948,
1.797500014,128.4473724,
1.799166799,129.8697357,
1.800833344,128.6991272,
1.80250001,128.6405182,
1.804166675,128.4326324,
1.80583334,128.577301,
1.807500124,128.3097992,
1.80916667,129.5260315,
1.810833335,128.5252991,
1.8125,129.7210541,
1.814166665,129.3540649,
1.815833449,128.5468445,
1.817499995,129.1358032,
1.81916666,129.5544891,
1.820833325,129.7496185,
1.82249999,130.5066071,
1.824166775,129.3076935,
1.82583344,129.6303101,
1.827499986,129.688446,
1.829166651,129.3973236,
1.830833316,129.2864532,
1.8325001,129.6869507,
1.834166765,129.9773102,
1.835833311,129.8465271,
1.837499976,129.7781067,
1.839166641,129.1717529,
1.840833426,129.9179077,
1.842500091,130.3339233,
1.844166636,129.8673859,
1.845833302,129.7302094,
1.847499967,130.5408478,
1.849166751,128.6519775,
1.850833416,131.4401245,
1.852500081,130.2588806,
1.854166627,129.8038483,
1.855833292,130.4738007,
1.857500076,128.9914246,
1.859166741,130.12117,
1.860833406,130.0643158,
1.862499952,130.4186096,
1.864166617,131.3578796,
1.865833402,130.4770966,
1.867500067,130.7475433,
1.869166732,129.6298523,
1.870833278,130.7560272,
1.872499943,130.0650635,
1.874166727,130.4612579,
1.875833392,130.4220734,
1.877500057,130.9856567,
1.879166722,131.783371,
1.880833268,130.0081177,
1.882500052,131.307373,
1.884166718,131.113327,
1.885833383,130.0754242,
1.887500048,129.9025726,
1.889166594,130.6621552,
1.890833378,130.4420319,
1.892500043,130.9012451,
1.894166708,130.8036804,
1.895833373,130.7017059,
1.897499919,130.8515015,
1.899166703,131.1665802,
1.900833368,131.443985,
1.902500033,131.3081055,
1.904166698,131.2511139,
1.905833364,131.3684998,
1.907500029,131.6081696,
1.909166694,131.0813751,
1.910833359,132.2397461,
1.912500024,131.8175812,
1.914166689,130.9062042,
1.915833354,131.2829895,
1.917500019,132.6169739,
1.919166684,132.3275757,
1.920833349,131.2191467,
1.922500014,130.7001495,
1.924166799,131.681366,
1.925833344,131.7013702,
1.92750001,131.678833,
1.929166675,132.5464172,
1.93083334,132.6275482,
1.932500124,132.6028748,
1.93416667,132.0749054,
1.935833335,132.5122223,
1.9375,131.2846375,
1.939166665,131.5718994,
1.940833449,133.0313416,
1.942499995,132.4582062,
1.94416666,131.6266937,
1.945833325,132.771347,
1.94749999,131.4295502,
1.949166775,132.4745941,
1.95083344,132.3177795,
1.952499986,132.3471985,
1.954166651,132.5187225,
1.955833316,132.7693787,
1.9575001,131.9015656,
1.959166765,132.6551361,
1.960833311,131.7202911,
1.962499976,132.8876038,
1.964166641,133.042923,
1.965833426,132.2987823,
1.967500091,133.1557617,
1.969166636,133.0890808,
1.970833302,132.2120972,
1.972499967,133.8721771,
1.974166751,133.0154419,
1.975833416,133.55867,
1.977500081,131.8553314,
1.979166627,133.3615723,
1.980833292,132.8617554,
1.982500076,131.9455872,
1.984166741,133.3341522,
1.985833406,134.3338928,
1.987499952,133.04599,
1.989166617,132.9627686,
1.990833402,133.9841614,
1.992500067,132.572052,
1.994166732,133.5671997,
1.995833278,132.4095612,
1.997499943,134.1005554,
1.999166727,133.018158,
2.000833273,132.6522064,
2.002500057,132.5661316,
2.004166603,133.6612701,
2.005833387,132.939621,
2.007500172,132.8330841,
2.009166718,134.4185486,
2.010833263,133.6030884,
2.012500048,135.3893585,
2.014166594,133.7798615,
2.015833378,132.1725769,
2.017500162,134.0943451,
2.019166708,133.8362579,
2.020833254,133.2484741,
2.022500038,135.2161255,
2.024166822,132.8883667,
2.025833368,133.6963348,
2.027499914,133.8344574,
2.029166698,133.7029266,
2.030833244,132.7500763,
2.032500029,134.2283936,
2.034166813,133.7835999,
2.035833359,134.0644989,
2.037499905,133.2147369,
2.039166689,133.1865387,
2.040833473,134.9372253,
2.042500019,133.3353577,
2.044166803,134.3890533,
2.045833349,133.4129333,
2.047499895,133.7036743,
2.049166679,134.6509857,
2.050833464,134.6973877,
2.05250001,133.6871948,
2.054166555,134.3759918,
2.05583334,135.1272125,
2.057500124,134.530365,
2.05916667,134.0415649,
2.060833454,134.6405334,
2.0625,135.2013092,
2.064166546,134.3612976,
2.06583333,133.8305511,
2.067500114,134.4806671,
2.06916666,133.8900757,
2.070833445,134.522171,
2.07249999,133.8095093,
2.074166775,134.2443848,
2.075833321,134.0152893,
2.077500105,134.8217773,
2.079166651,134.3222809,
2.080833197,134.4234009,
2.082499981,134.2387848,
2.084166765,134.0998383,
2.085833311,135.8501282,
2.087500095,134.5016632,
2.089166641,134.6837463,
2.090833426,135.143692,
2.092499971,135.9948273,
2.094166756,134.728241,
2.095833302,134.5746307,
2.097500086,133.4569855,
2.099166632,135.7522125,
2.100833416,134.0892487,
2.102499962,134.6092072,
2.104166746,135.6540527,
2.105833292,134.7464294,
2.107500076,135.8336334,
2.109166622,134.5734711,
2.110833406,134.2256012,
2.112499952,134.0396271,
2.114166737,135.2365723,
2.115833521,134.4595032,
2.117500067,135.04599,
2.119166613,135.4450531,
2.120833397,135.7048798,
2.122499943,134.9601135,
2.124166727,135.5889435,
2.125833273,135.6553345,
2.127500057,134.4262543,
2.129166603,136.3255157,
2.130833387,136.0184479,
2.132500172,136.029068,
2.134166718,134.6497345,
2.135833502,135.3100281,
2.137500048,135.822052,
2.139166832,136.4310608,
2.140833378,135.217804,
2.142500162,135.8010559,
2.144166708,136.0660858,
2.145833254,135.4483185,
2.147500038,135.9320984,
2.149166584,134.8157654,
2.150833368,136.3143158,
2.152500153,134.5789795,
2.154166698,134.72612,
2.155833483,135.9383392,
2.157500029,135.8110962,
2.159166813,134.6119537,
2.160833597,135.7967072,
2.162499905,135.445694,
2.164166689,135.8691711,
2.165833235,137.0366821,
2.167500019,135.0170746,
2.169166803,135.7886658,
2.170833349,137.2310028,
2.172500134,136.5192261,
2.174166679,134.773819,
2.175833464,135.8487701,
2.177500248,135.8257446,
2.179166555,136.0798645,
2.18083334,135.7149658,
2.182499886,135.230957,
2.18416667,136.8053436,
2.185833454,136.2607574,
2.1875,136.0281525,
2.189166784,136.3117371,
2.19083333,136.4331818,
2.192500114,136.0466614,
2.194166899,136.359024,
2.195833445,135.9359283,
2.19749999,135.8458557,
2.199166536,135.3737488,
2.200833321,137.5279999,
2.202500105,136.4462738,
2.204166651,136.4864349,
2.205833435,135.0519867,
2.207499981,136.5755768,
2.209166765,137.3932953,
2.210833549,135.9072876,
2.212500095,135.7109222,
2.21416688,136.9230194,
2.215833187,137.7464905,
2.217499971,135.8488312,
2.219166756,137.1374054,
2.220833302,136.1957703,
2.222500086,136.395752,
2.224166632,136.6578979,
2.225833416,137.034256,
2.2275002,135.2349701,
2.229166746,136.7660675,
2.23083353,136.4924622,
2.232499838,136.3222198,
2.234166622,136.7705688,
2.235833406,136.8005524,
2.237499952,136.5990448,
2.239166737,137.3833466,
2.240833282,136.1960907,
2.242500067,135.9542999,
2.244166851,138.0405426,
2.245833397,136.4596252,
2.247500181,136.2137299,
2.249166727,135.8996887,
2.250833273,137.0062714,
2.252500057,136.9740448,
2.254166603,137.5856476,
2.255833387,135.7850189,
2.257499933,136.9737091,
2.259166718,137.879303,
2.260833502,138.3067169,
2.262500048,136.7358246,
2.264166832,136.5658722,
2.265833378,137.5315552,
2.267500162,136.9030457,
2.269166708,137.0739594,
2.270833254,137.1557922,
2.272500038,136.1781311,
2.274166584,137.6837311,
2.275833368,137.2333221,
2.277500153,137.6815033,
2.279166698,136.7383881,
2.280833483,137.5769806,
2.282500029,137.7558746,
2.284166813,137.6641083,
2.285833597,137.3577576,
2.287499905,137.0756836,
2.289166689,137.8765106,
2.290833235,136.7660522,
2.292500019,137.2860107,
2.294166803,136.9535828,
2.295833349,136.9295197,
2.297500134,137.318985,
2.299166679,138.2722931,
2.300833464,136.6888733,
2.302500248,137.6886292,
2.304166555,137.2628021,
2.30583334,136.8443909,
2.307499886,137.3096924,
2.30916667,138.4195709,
2.310833454,137.935379,
2.3125,137.0650787,
2.314166784,136.8240204,
2.31583333,137.8389435,
2.317500114,136.6182251,
2.319166899,138.1741333,
2.320833445,137.9626617,
2.32249999,138.2032013,
2.324166536,136.9159851,
2.325833321,136.8628845,
2.327500105,137.2380066,
2.329166651,137.7479553,
2.330833435,137.1898193,
2.332499981,137.5244598,
2.334166765,137.6503906,
2.335833549,138.0972595,
2.337500095,138.4626465,
2.33916688,137.2072754,
2.340833187,137.7966614,
2.342499971,137.9504395,
2.344166756,137.4612732,
2.345833302,138.1272888,
2.347500086,137.4809723,
2.349166632,138.9810333,
2.350833416,137.8246765,
2.3525002,137.5000763,
2.354166746,137.8083801,
2.35583353,138.3609161,
2.357499838,137.5266876,
2.359166622,137.8744812,
2.360833406,137.7187805,
2.362499952,138.741684,
2.364166737,138.2650452,
2.365833282,137.9453278,
2.367500067,139.5834045,
2.369166851,138.6958466,
2.370833397,138.8875732,
2.372500181,138.4806366,
2.374166727,137.9803467,
2.375833273,137.9621887,
2.377500057,139.1825714,
2.379166603,137.4971771,
2.380833387,138.6712646,
2.382499933,138.9799805,
2.384166718,138.2340851,
2.385833502,138.0366211,
2.387500048,138.6750946,
2.389166832,139.121048,
2.390833378,138.3040314,
2.392500162,138.223999,
2.394166708,138.3056488,
2.395833254,138.456665,
2.397500038,137.3978729,
2.399166584,138.2607269,
2.400833368,139.1357727,
2.402500153,139.5801544,
2.404166698,138.4110413,
2.405833483,138.7226257,
2.407500029,139.0883179,
2.409166813,136.888504,
2.410833597,138.4560547,
2.412499905,138.6496429,
2.414166689,139.3168793,
2.415833235,138.8139954,
2.417500019,139.0439606,
2.419166803,138.7741089,
2.420833349,138.5711212,
2.422500134,138.327774,
2.424166679,138.2812042,
2.425833464,140.4090118,
2.427500248,138.9743042,
2.429166555,138.8991699,
2.43083334,139.8036499,
2.432499886,138.2170258,
2.43416667,139.1865387,
2.435833454,137.5589447,
2.4375,139.0877533,
2.439166784,138.3779297,
2.44083333,139.1882629,
2.442500114,139.2466888,
2.444166899,139.9118805,
2.445833445,137.6163788,
2.44749999,138.5709076,
2.449166536,138.8036041,
2.450833321,138.9669342,
2.452500105,138.8006592,
2.454166651,138.2168579,
2.455833435,139.2385559,
2.457499981,138.0851593,
2.459166765,139.0282745,
2.460833549,140.3052979,
2.462500095,138.6376495,
2.46416688,139.5664215,
2.465833187,138.2354126,
2.467499971,138.7775116,
2.469166756,140.3643951,
2.470833302,137.6857452,
2.472500086,137.5101013,
2.474166632,138.9724884,
2.475833416,139.8863373,
2.4775002,138.9578857,
2.479166746,137.3248901,
2.48083353,138.1373444,
2.482499838,138.4136505,
2.484166622,139.7623901,
2.485833406,139.1344757,
2.487499952,138.8397064,
2.489166737,139.2599182,
2.490833282,139.1782074,
2.492500067,138.4290314,
2.494166851,139.8161316,
2.495833397,140.4859924,
2.497500181,140.433197,
2.499166727,138.7317963,
2.500833273,139.3763123,
2.502500057,139.6652832,
2.504166603,138.9105225,
2.505833387,138.476944,
2.507499933,140.3878632,
2.509166718,140.4816895,
2.510833502,140.0238647,
2.512500048,139.2678375,
2.514166832,138.6623535,
2.515833378,139.2100525,
2.517500162,139.4376221,
2.519166708,140.1254272,
2.520833254,139.4115906,
2.522500038,139.3816528,
2.524166584,139.6730042,
2.525833368,140.5764008,
2.527500153,139.5722198,
2.529166698,139.7107391,
2.530833483,138.5677338,
2.532500029,140.3605042,
2.534166813,138.8922272,
2.535833597,139.7999573,
2.537499905,138.657608,
2.539166689,139.3376312,
2.540833235,140.2193146,
2.542500019,139.8160706,
2.544166803,139.9150085,
2.545833349,138.9844513,
2.547500134,139.1384888,
2.549166679,140.0778046,
2.550833464,139.8028259,
2.552500248,139.3856354,
2.554166555,139.905014,
2.55583334,140.8900146,
2.557499886,140.1971283,
2.55916667,139.2989349,
2.560833454,139.372406,
2.5625,139.4287872,
2.564166784,139.9059906,
2.56583333,139.0603638,
2.567500114,139.3808441,
2.569166899,139.3079224,
2.570833445,140.6077423,
2.57249999,139.2328339,
2.574166536,139.9006653,
2.575833321,140.2842712,
2.577500105,140.872406,
2.579166651,138.9925842,
2.580833435,139.2682037,
2.582499981,140.3904877,
2.584166765,139.923111,
2.585833549,140.145874,
2.587500095,140.3137512,
2.58916688,140.0361023,
2.590833187,139.841507,
2.592499971,140.4124298,
2.594166756,140.9736176,
2.595833302,138.745285,
2.597500086,139.7345886,
2.599166632,139.741684,
2.600833416,140.5513306,
2.6025002,138.4743347,
2.604166746,141.6355438,
2.60583353,139.6828613,
2.607499838,140.6399384,
2.609166622,138.8689423,
2.610833406,139.3026886,
2.612499952,141.363205,
2.614166737,140.6635895,
2.615833282,140.985321,
2.617500067,138.869873,
2.619166851,140.4619141,
2.620833397,139.8068237,
2.622500181,139.6635132,
2.624166727,140.0174713,
2.625833273,140.2847137,
2.627500057,138.9292297,
2.629166603,140.5270844,
2.630833387,140.0140839,
2.632499933,140.1739197,
2.634166718,139.5256958,
2.635833502,139.2611084,
2.637500048,139.4411469,
2.639166832,140.5075378,
2.640833378,140.1392975,
2.642500162,139.8467712,
2.644166708,140.3177643,
2.645833254,140.3123322,
2.647500038,139.3443604,
2.649166584,139.8353119,
2.650833368,140.1306763,
2.652500153,139.5458374,
2.654166698,139.0718231,
2.655833483,140.2036591,
2.657500029,140.8917084,
2.659166813,140.2454224,
2.660833597,140.3603363,
2.662499905,140.9298248,
2.664166689,140.0617371,
2.665833235,140.2870178,
2.667500019,140.7112579,
2.669166803,140.3944092,
2.670833349,140.8920898,
2.672500134,140.0718842,
2.674166679,139.7844238,
2.675833464,140.3493042,
2.677500248,141.0132294,
2.679166555,140.0769806,
2.68083334,141.1763306,
2.682499886,141.7171173,
2.68416667,140.7270508,
2.685833454,140.9125519,
2.6875,140.1545105,
2.689166784,140.9326019,
2.69083333,140.7348938,
2.692500114,141.4072571,
2.694166899,140.3198395,
2.695833445,141.1115265,
2.69749999,140.1391754,
2.699166536,139.0180817,
2.700833321,140.9368744,
2.702500105,140.2961578,
2.704166651,140.392746,
2.705833435,140.2562103,
2.707499981,140.6651917,
2.709166765,140.7680969,
2.710833549,141.9074402,
2.712500095,140.6315155,
2.71416688,141.5202484,
2.715833187,141.2202148,
2.717499971,140.187912,
2.719166756,140.9900665,
2.720833302,140.2765045,
2.722500086,141.2332001,
2.724166632,141.4191437,
2.725833416,139.922287,
2.7275002,140.4936218,
2.729166746,141.3852692,
2.73083353,140.8333435,
2.732499838,141.3778839,
2.734166622,141.1548157,
2.735833406,142.0729218,
2.737499952,140.3023987,
2.739166737,141.3278656,
2.740833282,141.4183655,
2.742500067,140.4719543,
2.744166851,140.9105988,
2.745833397,140.8140411,
2.747500181,140.4668732,
2.749166727,141.7172852,
2.750833273,141.825592,
2.752500057,140.8421783,
2.754166603,140.8057404,
2.755833387,140.3656769,
2.757499933,141.4513092,
2.759166718,140.1323395,
2.760833502,142.0524139,
2.762500048,140.2588654,
2.764166832,140.4361115,
2.765833378,141.6939087,
2.767500162,140.6645813,
2.769166708,141.0262604,
2.770833254,140.9257202,
2.772500038,140.0850983,
2.774166584,140.8292389,
2.775833368,143.7548218,
2.777500153,141.1029205,
2.779166698,141.6751404,
2.780833483,140.696579,
2.782500029,140.688324,
2.784166813,140.3269501,
2.785833597,140.8687592,
2.787499905,140.9160614,
2.789166689,142.0965729,
2.790833235,141.2207489,
2.792500019,141.1650391,
2.794166803,140.4600677,
2.795833349,141.6605072,
2.797500134,140.9742889,
2.799166679,141.6059113,
2.800833464,141.1049042,
2.802500248,141.4968567,
2.804166555,140.7466431,
2.80583334,141.7494049,
2.807499886,140.4167023,
2.80916667,140.0529327,
2.810833454,141.6472931,
2.8125,141.5117188,
2.814166784,141.6074371,
2.81583333,140.916748,
2.817500114,141.4136047,
2.819166899,141.1309204,
2.820833445,142.0132141,
2.82249999,141.6116028,
2.824166536,142.3227997,
2.825833321,140.9498138,
2.827500105,142.0486755,
2.829166651,141.2712708,
2.830833435,141.8869171,
2.832499981,140.7419281,
2.834166765,141.463501,
2.835833549,141.867157,
2.837500095,140.4044647,
2.83916688,141.9979858,
2.840833187,142.4306335,
2.842499971,141.6620636,
2.844166756,140.9990387,
2.845833302,142.1407623,
2.847500086,142.1472321,
2.849166632,142.5975037,
2.850833416,141.3710938,
2.8525002,141.303299,
2.854166746,141.5250854,
2.85583353,141.32341,
2.857499838,143.6055908,
2.859166622,141.9094849,
2.860833406,142.6647644,
2.862499952,142.0802612,
2.864166737,141.4794006,
2.865833282,141.4468384,
2.867500067,142.1257019,
2.869166851,142.8228149,
2.870833397,141.3663635,
2.872500181,142.2071533,
2.874166727,142.1659393,
2.875833273,140.9807434,
2.877500057,141.8527679,
2.879166603,141.4795074,
2.880833387,142.4431,
2.882499933,142.2014465,
2.884166718,141.1414948,
2.885833502,142.4065857,
2.887500048,143.2089539,
2.889166832,141.2753448,
2.890833378,142.4268036,
2.892500162,140.5710144,
2.894166708,141.2135925,
2.895833254,140.7292633,
2.897500038,141.8024292,
2.899166584,142.0290375,
2.900833368,141.7314606,
2.902500153,141.8303833,
2.904166698,141.5987701,
2.905833483,141.7626648,
2.907500029,140.9703674,
2.909166813,142.0792084,
2.910833597,142.2248077,
2.912499905,141.5421143,
2.914166689,141.5672607,
2.915833235,141.1620483,
2.917500019,141.8299408,
2.919166803,143.3620453,
2.920833349,141.5735931,
2.922500134,140.7635651,
2.924166679,141.8024139,
2.925833464,141.7552948,
2.927500248,142.1217041,
2.929166555,142.1004181,
2.93083334,141.7141876,
2.932499886,140.8583069,
2.93416667,141.8705597,
2.935833454,141.1641083,
2.9375,142.5114594,
2.939166784,142.1703949,
2.94083333,142.5457764,
2.942500114,142.2259216,
2.944166899,141.5835266,
2.945833445,141.8601227,
2.94749999,141.0144501,
2.949166536,141.8864441,
2.950833321,142.2703705,
2.952500105,142.5250092,
2.954166651,142.3212433,
2.955833435,142.2026978,
2.957499981,142.4732971,
2.959166765,141.8014069,
2.960833549,142.2185211,
2.962500095,141.4838867,
2.96416688,142.6611328,
2.965833187,141.2384949,
2.967499971,142.89888,
2.969166756,142.0470886,
2.970833302,141.6248932,
2.972500086,142.5807037,
2.974166632,142.0406342,
2.975833416,142.2202148,
2.9775002,142.1003265,
2.979166746,141.4058685,
2.98083353,141.0447998,
2.982499838,141.8167572,
2.984166622,141.7796783,
2.985833406,142.7175598,
2.987499952,142.6170654,
2.989166737,142.0435028,
2.990833282,142.5670013,
2.992500067,143.3502045,
2.994166851,142.6511993,
2.995833397,142.1711121,
2.997500181,142.0829315,
2.999166727,141.8582611,
3.000833273,143.2025146,
3.002500057,142.62117,
3.004166603,142.5888214,
3.005833387,142.3495483,
3.007499933,142.0051117,
3.009166718,142.162384,
3.010833502,142.6277008,
3.012500048,142.4253845,
3.014166832,142.9121246,
3.015833378,141.9805298,
3.017500162,141.7922211,
3.019166708,141.0103455,
3.020833254,142.8401642,
3.022500038,142.8622437,
3.024166584,143.2763519,
3.025833368,143.1073456,
3.027500153,141.182663,
3.029166698,142.8021698,
3.030833483,142.1586914,
3.032500029,142.9906616,
3.034166813,142.3227539,
3.035833597,142.2242126,
3.037499905,142.9440765,
3.039166689,142.2469177,
3.040833235,142.9812622,
3.042500019,142.3067322,
3.044166803,142.2799988,
3.045833349,143.3873444,
3.047500134,141.9957733,
3.049166679,142.4283447,
3.050833464,142.0821381,
3.052500248,141.4561005,
3.054166555,142.2782745,
3.05583334,141.7702942,
3.057499886,142.4801178,
3.05916667,142.2463074,
3.060833454,143.4442596,
3.0625,142.6176453,
3.064166784,143.2973633,
3.06583333,144.0041809,
3.067500114,142.6846008,
3.069166899,142.0506592,
3.070833445,142.4952087,
3.07249999,143.4343567,
3.074166536,141.6673584,
3.075833321,142.3913727,
3.077500105,142.7044678,
3.079166651,141.9381409,
3.080833435,141.2159424,
3.082499981,142.5182343,
3.084166765,142.2097626,
3.085833549,142.6351776,
3.087500095,141.1952515,
3.08916688,142.9182281,
3.090833187,142.2858887,
3.092499971,141.8660736,
3.094166756,142.215271,
3.095833302,142.5727539,
3.097500086,142.5287781,
3.099166632,141.8275757,
3.100833416,143.0453644,
3.1025002,142.0938568,
3.104166746,142.1240997,
3.10583353,142.4433136,
3.107499838,142.1197205,
3.109166622,142.8545837,
3.110833406,143.5667725,
3.112499952,142.3457489,
3.114166737,142.914856,
3.115833282,142.7813416,
3.117500067,142.6001892,
3.119166851,143.1715546,
3.120833397,143.563858,
3.122500181,142.1515045,
3.124166727,142.4376831,
3.125833273,143.0485382,
3.127500057,141.4629974,
3.129166603,141.8910217,
3.130833387,141.7398376,
3.132499933,142.7181396,
3.134166718,143.1549835,
3.135833502,143.1013336,
3.137500048,142.9908447,
3.139166832,142.8023987,
3.140833378,142.5359955,
3.142500162,142.9225006,
3.144166708,143.2806549,
3.145833254,142.4728851,
3.147500038,142.1903534,
3.149166584,141.5161285,
3.150833368,143.800827,
3.152500153,143.6499023,
3.154166698,141.8647156,
3.155833483,142.9721527,
3.157500029,142.3297577,
3.159166813,143.2111206,
3.160833597,142.1979523,
3.162499905,142.5255127,
3.164166689,142.5402832,
3.165833235,142.5442505,
3.167500019,143.5575104,
3.169166803,141.4528961,
3.170833349,142.8117676,
3.172500134,143.8122101,
3.174166679,143.8570862,
3.175833464,142.2207031,
3.177500248,142.6773376,
3.179166555,143.7060394,
3.18083334,142.0637665,
3.182499886,142.4420929,
3.18416667,143.9534454,
3.185833454,143.7638092,
3.1875,143.0972443,
3.189166784,142.1107941,
3.19083333,142.8656311,
3.192500114,143.0209961,
3.194166899,144.7153015,
3.195833445,143.1426239,
3.19749999,143.6987,
3.199166536,143.0469208,
3.200833321,143.1996002,
3.202500105,142.7239227,
3.204166651,143.5556641,
3.205833435,143.905838,
3.207499981,143.9732056,
3.209166765,142.6849823,
3.210833549,143.7655029,
3.212500095,143.5054626,
3.21416688,142.2179413,
3.215833187,142.6693115,
3.217499971,142.5453186,
3.219166756,144.2016754,
3.220833302,142.8683319,
3.222500086,143.618103,
3.224166632,142.5554047,
3.225833416,143.2543335,
3.2275002,144.1309509,
3.229166746,142.6057739,
3.23083353,144.4013214,
3.232499838,142.8811493,
3.234166622,142.8368835,
3.235833406,143.5201263,
3.237499952,142.9497528,
3.239166737,143.2694397,
3.240833282,144.0561676,
3.242500067,142.612381,
3.244166851,143.2994843,
3.245833397,143.5060425,
3.247500181,143.3186493,
3.249166727,143.1502228,
3.250833273,142.7468567,
3.252500057,143.3698883,
3.254166603,143.0931549,
3.255833387,142.840332,
3.257499933,143.3541107,
3.259166718,143.663681,
3.260833502,142.3807068,
3.262500048,141.8535309,
3.264166832,142.5256348,
3.265833378,142.729126,
3.267500162,142.8438721,
3.269166708,143.3284912,
3.270833254,143.7075958,
3.272500038,143.016861,
3.274166584,143.1033936,
3.275833368,143.8908691,
3.277500153,142.8674011,
3.279166698,143.907608,
3.280833483,143.9780426,
3.282500029,142.620636,
3.284166813,142.3213806,
3.285833597,143.9929047,
3.287499905,142.4759369,
3.289166689,145.2211304,
3.290833235,143.3162384,
3.292500019,143.702179,
3.294166803,143.6213837,
3.295833349,143.401001,
3.297500134,143.6777496,
3.299166679,144.3216095,
3.300833464,143.153183,
3.302500248,143.124527,
3.304166555,144.9796448,
3.30583334,144.1095886,
3.307499886,144.2629852,
3.30916667,144.1002808,
3.310833454,143.4049072,
3.3125,142.6495209,
3.314166784,143.2031708,
3.31583333,142.6877747,
3.317500114,144.1222534,
3.319166899,143.2159882,
3.320833445,142.8392944,
3.32249999,143.8629913,
3.324166536,143.6823578,
3.325833321,142.8309326,
3.327500105,143.4114838,
3.329166651,143.9443359,
3.330833435,144.1242828,
3.332499981,143.5574188,
3.334166765,143.1227264,
3.335833549,143.7444458,
3.337500095,142.628067,
3.33916688,143.3773956,
3.340833187,142.2412262,
3.342499971,143.4280548,
3.344166756,143.8719025,
3.345833302,143.1116333,
3.347500086,143.3526459,
3.349166632,142.7728271,
3.350833416,143.2247009,
3.3525002,143.4096069,
3.354166746,143.4666443,
3.35583353,144.3757477,
3.357499838,143.6088562,
3.359166622,143.4685364,
3.360833406,143.4215088,
3.362499952,143.6589813,
3.364166737,143.8153687,
3.365833282,143.4100189,
3.367500067,142.9608612,
3.369166851,144.2307739,
3.370833397,142.4703674,
3.372500181,144.444458,
3.374166727,143.0721893,
3.375833273,143.908905,
3.377500057,143.8494873,
3.379166603,144.3144379,
3.380833387,142.3818512,
3.382499933,143.8609314,
3.384166718,142.6530151,
3.385833502,144.2823334,
3.387500048,143.9387512,
3.389166832,143.5111237,
3.390833378,144.454071,
3.392500162,143.3258667,
3.394166708,143.6970367,
3.395833254,144.1131439,
3.397500038,143.2919617,
3.399166584,143.6300507,
3.400833368,143.9057465,
3.402500153,143.8565521,
3.404166698,142.8883209,
3.405833483,143.5552826,
3.407500029,143.4798889,
3.409166813,144.0744629,
3.410833597,143.8380432,
3.412499905,143.9288483,
3.414166689,142.4214478,
3.415833235,143.8387756,
3.417500019,143.1877899,
3.419166803,143.1020355,
3.420833349,142.7862091,
3.422500134,143.7921295,
3.424166679,143.5615692,
3.425833464,143.678299,
3.427500248,143.7805481,
3.429166555,142.7846222,
3.43083334,143.0149384,
3.432499886,143.1854248,
3.43416667,144.682724,
3.435833454,143.5637054,
3.4375,142.9090576,
3.439166784,144.5170898,
3.44083333,144.303421,
3.442500114,145.373764,
3.444166899,144.2293396,
3.445833445,142.9628601,
3.44749999,144.4421997,
3.449166536,143.9150238,
3.450833321,143.5984497,
3.452500105,144.1304321,
3.454166651,142.9122314,
3.455833435,143.8377686,
3.457499981,142.9149323,
3.459166765,143.7400818,
3.460833549,143.4719391,
3.462500095,143.4603882,
3.46416688,144.7729645,
3.465833187,145.091568,
3.467499971,144.9544983,
3.469166756,143.8043976,
3.470833302,143.5442352,
3.472500086,143.9451599,
3.474166632,143.3939056,
3.475833416,144.2203674,
3.4775002,144.2978516,
3.479166746,144.0312653,
3.48083353,143.8903198,
3.482499838,144.1972351,
3.484166622,143.5918579,
3.485833406,142.4476929,
3.487499952,144.337677,
3.489166737,143.8129272,
3.490833282,144.7624054,
3.492500067,144.9105835,
3.494166851,144.2801666,
3.495833397,144.087204,
3.497500181,143.3753967,
3.499166727,143.6139832,
3.500833273,143.3298492,
3.502500057,144.5145721,
3.504166603,143.5053101,
3.505833387,145.071991,
3.507499933,143.8755951,
3.509166718,143.1961517,
3.510833502,144.1864319,
3.512500048,144.0826416,
3.514166832,144.0391693,
3.515833378,142.9199829,
3.517500162,144.6088409,
3.519166708,143.8587189,
3.520833254,143.3294067,
3.522500038,143.6649475,
3.524166584,144.3159485,
3.525833368,144.7875977,
3.527500153,143.8959351,
3.529166698,143.3461914,
3.530833483,143.5993805,
3.532500029,144.2258148,
3.534166813,142.6560364,
3.535833597,143.6249084,
3.537499905,144.2123871,
3.539166689,143.7984314,
3.540833235,143.3310394,
3.542500019,143.7877808,
3.544166803,143.9743958,
3.545833349,144.6897888,
3.547500134,143.4605408,
3.549166679,143.6760254,
3.550833464,144.9794159,
3.552500248,144.3547974,
3.554166555,144.5471039,
3.55583334,144.6897278,
3.557499886,143.7089996,
3.55916667,143.4104614,
3.560833454,144.5055237,
3.5625,143.7050476,
3.564166784,144.1886902,
3.56583333,144.3940125,
3.567500114,143.6731415,
3.569166899,143.9613953,
3.570833445,144.8694153,
3.57249999,143.0594788,
3.574166536,144.3768921,
3.575833321,143.8615417,
3.577500105,142.4058685,
3.579166651,143.9962921,
3.580833435,144.7404175,
3.582499981,143.1084747,
3.584166765,143.4949951,
3.585833549,143.1847687,
3.587500095,144.0746613,
3.58916688,144.357193,
3.590833187,145.2240295,
3.592499971,143.5019226,
3.594166756,144.4703369,
3.595833302,144.9340363,
3.597500086,144.2134399,
3.599166632,145.1320801,
3.600833416,143.5267639,
3.6025002,144.8226318,
3.604166746,144.2426758,
3.60583353,144.457428,
3.607499838,144.0572815,
3.609166622,144.4960327,
3.610833406,143.4264832,
3.612499952,143.9521637,
3.614166737,144.2492065,
3.615833282,143.5353546,
3.617500067,144.3009186,
3.619166851,144.1876068,
3.620833397,143.9696808,
3.622500181,144.3520203,
3.624166727,145.1598511,
3.625833273,143.5045013,
3.627500057,144.92659,
3.629166603,143.1283875,
3.630833387,144.4865723,
3.632499933,143.9780884,
3.634166718,144.5910187,
3.635833502,144.9931183,
3.637500048,144.8611755,
3.639166832,143.5004272,
3.640833378,144.603302,
3.642500162,144.2479553,
3.644166708,144.0341339,
3.645833254,144.8794403,
3.647500038,143.9200897,
3.649166584,144.6056519,
3.650833368,143.2183228,
3.652500153,144.1447296,
3.654166698,145.1916504,
3.655833483,144.8092346,
3.657500029,144.1375122,
3.659166813,144.1135559,
3.660833597,144.0741425,
3.662499905,145.1160431,
3.664166689,143.9165039,
3.665833235,144.7569733,
3.667500019,146.4897156,
3.669166803,144.4959106,
3.670833349,142.4597778,
3.672500134,144.5515747,
3.674166679,143.5309296,
3.675833464,143.8355255,
3.677500248,144.9063568,
3.679166555,143.7774506,
3.68083334,143.7793884,
3.682499886,144.3417511,
3.68416667,144.820755,
3.685833454,143.9958801,
3.6875,144.2215576,
3.689166784,144.2094421,
3.69083333,143.9325714,
3.692500114,144.374115,
3.694166899,145.1196136,
3.695833445,144.2000885,
3.69749999,144.8744507,
3.699166536,144.7514496,
3.700833321,144.5868378,
3.702500105,144.2597656,
3.704166651,143.5130005,
3.705833435,144.5595245,
3.707499981,144.4304352,
3.709166765,143.8149261,
3.710833549,144.4292145,
3.712500095,143.5370178,
3.71416688,143.9009094,
3.715833187,144.1843414,
3.717499971,144.8535309,
3.719166756,144.9107513,
3.720833302,144.1813812,
3.722500086,144.2343292,
3.724166632,143.3699951,
3.725833416,144.1971893,
3.7275002,144.6155548,
3.729166746,145.2600555,
3.73083353,144.5269318,
3.732499838,143.6658325,
3.734166622,145.0429382,
3.735833406,144.723587,
3.737499952,144.8304749,
3.739166737,144.8459167,
3.740833282,144.113678,
3.742500067,145.437088,
3.744166851,144.6163025,
3.745833397,143.1909485,
3.747500181,144.7430878,
3.749166727,145.0988159,
3.750833273,145.0731812,
3.752500057,145.2488861,
3.754166603,144.9710999,
3.755833387,143.2041473,
3.757499933,143.6877441,
3.759166718,144.7470398,
3.760833502,143.855957,
3.762500048,143.5813141,
3.764166832,144.2654419,
3.765833378,144.4967194,
3.767500162,144.2072906,
3.769166708,144.8680725,
3.770833254,144.2420654,
3.772500038,144.6684418,
3.774166584,145.3504181,
3.775833368,144.4173279,
3.777500153,143.7566681,
3.779166698,144.7388153,
3.780833483,144.7983246,
3.782500029,144.3713989,
3.784166813,144.3423767,
3.785833597,143.7188416,
3.787499905,144.134613,
3.789166689,144.9577484,
3.790833235,144.5572662,
3.792500019,145.0990143,
3.794166803,145.4212494,
3.795833349,144.704422,
3.797500134,143.1849365,
3.799166679,144.9165649,
3.800833464,144.7687073,
3.802500248,145.5519562,
3.804166555,145.0236206,
3.80583334,144.3327637,
3.807499886,144.4873047,
3.80916667,144.301651,
3.810833454,144.7125092,
3.8125,145.0361176,
3.814166784,145.085495,
3.81583333,143.8632507,
3.817500114,145.2621155,
3.819166899,144.3674164,
3.820833445,145.1335144,
3.82249999,144.3038635,
3.824166536,144.4234161,
3.825833321,144.7344055,
3.827500105,143.253479,
3.829166651,144.4009399,
3.830833435,145.1247101,
3.832499981,145.3883362,
3.834166765,144.1737671,
3.835833549,144.3686676,
3.837500095,143.783783,
3.83916688,144.7119904,
3.840833187,144.469574,
3.842499971,144.4927368,
3.844166756,144.3891296,
3.845833302,144.936264,
3.847500086,145.2682343,
3.849166632,144.0054169,
3.850833416,144.7863617,
3.8525002,144.8792267,
3.854166746,144.6720428,
3.85583353,143.0639801,
3.857499838,144.8765411,
3.859166622,144.532486,
3.860833406,143.8703613,
3.862499952,145.33992,
3.864166737,145.0755157,
3.865833282,145.0607147,
3.867500067,144.3141327,
3.869166851,143.4944153,
3.870833397,143.8695831,
3.872500181,144.0011749,
3.874166727,144.3544312,
3.875833273,143.6954803,
3.877500057,144.5506439,
3.879166603,143.7820587,
3.880833387,144.2872772,
3.882499933,144.5261841,
3.884166718,144.1356049,
3.885833502,144.560379,
3.887500048,144.9161224,
3.889166832,144.0305634,
3.890833378,144.8834381,
3.892500162,144.7676849,
3.894166708,143.1999359,
3.895833254,144.8075104,
3.897500038,144.5001221,
3.899166584,144.7628937,
3.900833368,144.1203003,
3.902500153,144.5522614,
3.904166698,145.0547638,
3.905833483,144.0766754,
3.907500029,145.7521515,
3.909166813,144.9286652,
3.910833597,145.7085571,
3.912499905,144.6938934,
3.914166689,145.3820648,
3.915833235,144.1307526,
3.917500019,144.4349365,
3.919166803,144.0889893,
3.920833349,144.9288177,
3.922500134,143.7596283,
3.924166679,144.9300232,
3.925833464,144.9785919,
3.927500248,144.7410889,
3.929166555,144.5786591,
3.93083334,144.9473419,
3.932499886,144.7410583,
3.93416667,145.2914886,
3.935833454,145.1559601,
3.9375,144.4936981,
3.939166784,145.0830383,
3.94083333,144.2618103,
3.942500114,144.4198914,
3.944166899,144.9903412,
3.945833445,144.4001312,
3.94749999,143.8970337,
3.949166536,143.5555878,
3.950833321,145.1438293,
3.952500105,144.2045593,
3.954166651,145.3308105,
3.955833435,143.9676056,
3.957499981,145.1069946,
3.959166765,145.2073975,
3.960833549,144.1055756,
3.962500095,145.39328,
3.96416688,143.9272614,
3.965833187,144.962204,
3.967499971,145.3727264,
3.969166756,145.8069458,
3.970833302,145.1490021,
3.972500086,145.1875916,
3.974166632,146.471817,
3.975833416,145.0876923,
3.9775002,144.9184113,
3.979166746,143.6457825,
3.98083353,144.3895569,
3.982499838,145.0570221,
3.984166622,144.5407715,
3.985833406,145.2163696,
3.987499952,144.7526855,
3.989166737,145.5898438,
3.990833282,144.5113831,
3.992500067,146.6360016,
3.994166851,144.7552032,
3.995833397,144.3075104,
3.997500181,144.806778,
3.999166727,145.2259369,
4.000833511,144.6542053,
4.002500057,144.8058929,
4.004166603,144.7978821,
4.005833626,145.0122833,
4.007500172,145.8087006,
4.009166718,145.3492432,
4.010833263,145.1332855,
4.012499809,145.0142975,
4.014166832,144.9723358,
4.015833378,146.1941528,
4.017499924,144.8573151,
4.019166946,145.2425995,
4.020833492,145.2862244,
4.022500038,145.3065491,
4.024166584,144.5252991,
4.025833607,144.3039246,
4.027500153,144.1465454,
4.029166698,145.0416412,
4.030833244,144.4169464,
4.03249979,145.6694794,
4.034166813,145.6411743,
4.035833359,143.8557739,
4.037499905,144.9450531,
4.039166927,145.1742554,
4.040833473,145.0021515,
4.042500019,144.258606,
4.044167042,144.5969543,
4.045833111,145.3436737,
4.047500134,145.6054535,
4.049166679,144.0490112,
4.050833225,144.671524,
4.052500248,145.441803,
4.054166794,145.4156647,
4.05583334,144.101181,
4.057499886,144.6555634,
4.059166908,144.9783783,
4.060833454,145.0414734,
4.0625,147.0287018,
4.064166546,144.6650848,
4.065833092,144.9852142,
4.067500114,144.5417175,
4.06916666,143.8253326,
4.070833206,145.1647186,
4.072500229,145.778183,
4.074166775,144.9711456,
4.075833321,145.239151,
4.077500343,144.53302,
4.079166889,145.1926117,
4.080833435,145.6812134,
4.082499981,145.1059723,
4.084166527,144.6111603,
4.085833549,144.2110901,
4.087500095,145.7848969,
4.089166641,145.2129669,
4.090833187,143.6325989,
4.09250021,145.4242249,

