1,,
Time (min),Intensity (a.u.),
0.0008333333535,45.80737305,
0.002500000177,45.42662811,
0.004166666884,45.70708466,
0.005833333358,45.43136978,
0.007500000298,45.85861969,
0.009166667238,46.03261185,
0.01083333418,45.77862549,
0.01250000019,45.57140732,
0.01416666713,45.45702744,
0.01583333313,45.89575577,
0.01750000194,45.7673912,
0.01916666701,46.13580322,
0.02083333395,45.82953644,
0.02250000089,46.36566925,
0.02416666783,45.91676331,
0.02583333477,46.00505447,
0.02749999985,46.29370117,
0.02916666679,45.77213669,
0.03083333373,46.30356216,
0.03250000253,45.67926407,
0.03416666761,45.76470947,
0.03583333641,45.29140854,
0.03750000149,45.79247284,
0.03916667029,46.75398636,
0.04083333537,45.88176346,
0.04250000045,45.68660736,
0.04416666925,46.48683167,
0.04583333433,46.14847565,
0.04750000313,45.93288422,
0.04916666821,45.33040237,
0.05083333328,46.02332687,
0.05250000209,46.01639557,
0.05416666716,46.33379745,
0.05583333597,45.92507553,
0.05750000104,45.97621918,
0.05916666612,46.36767578,
0.06083333492,45.91637039,
0.0625,45.71198654,
0.06416667253,46.72114563,
0.0658333376,46.08656311,
0.06750000268,45.10695648,
0.06916666776,46.09885025,
0.07083333284,46.24167633,
0.07249999791,46.03815842,
0.07416667044,45.62681961,
0.07583333552,46.04140472,
0.0775000006,45.91976166,
0.07916666567,45.458004,
0.08083333075,47.12354279,
0.08250000328,46.51290131,
0.08416666836,46.1566925,
0.08583333343,45.77743149,
0.08749999851,45.58052444,
0.08916666359,46.53484726,
0.09083333611,46.01507187,
0.09250000119,45.98684692,
0.09416666627,46.56257629,
0.09583333135,46.4863205,
0.09749999642,45.99340057,
0.09916666895,45.42288971,
0.100833334,44.97810364,
0.1024999991,45.58433914,
0.1041666642,45.67294693,
0.1058333293,46.01398849,
0.1075000018,45.62468338,
0.1091666669,46.12660217,
0.1108333319,45.65867615,
0.112499997,46.0930481,
0.1141666621,46.05511093,
0.1158333346,46.1461792,
0.1174999997,45.87413788,
0.1191666648,45.77633667,
0.1208333299,46.24369812,
0.1224999949,46.26353836,
0.1241666749,45.58600235,
0.1258333325,45.34346771,
0.1274999976,45.84871674,
0.1291666627,45.83487701,
0.1308333278,46.48339081,
0.1325000077,45.88838959,
0.1341666728,44.7371254,
0.1358333379,46.73259354,
0.137500003,45.93687439,
0.1391666681,45.60080719,
0.1408333331,45.87648773,
0.1424999982,45.17433929,
0.1441666782,45.46090317,
0.1458333284,46.22460175,
0.1475000083,45.78117371,
0.1491666585,45.42763138,
0.1508333385,46.85794449,
0.1525000036,45.65571213,
0.1541666687,45.11328888,
0.1558333337,46.29092407,
0.1574999988,45.36100769,
0.1591666639,46.17990494,
0.1608333439,45.4485054,
0.162499994,46.52156067,
0.164166674,45.68169785,
0.1658333242,46.09905243,
0.1675000042,45.81391525,
0.1691666692,46.02622223,
0.1708333343,45.91659164,
0.1724999994,46.01006699,
0.1741666645,45.99879074,
0.1758333296,45.92978668,
0.1775000095,45.96744156,
0.1791666597,46.41146088,
0.1808333397,46.00802231,
0.1824999899,45.79446793,
0.1841666698,46.18855667,
0.1858333498,45.68960953,
0.1875,45.72141266,
0.18916668,46.11689377,
0.1908333302,46.05012512,
0.1925000101,46.62322998,
0.1941666752,46.42729568,
0.1958333403,45.93883514,
0.1975000054,45.90988159,
0.1991666704,46.18696976,
0.2008333355,45.34479523,
0.2025000155,45.74116135,
0.2041666657,46.43714905,
0.2058333457,45.66040039,
0.2074999958,45.33142471,
0.2091666758,45.99950027,
0.2108333409,45.54931259,
0.212500006,45.74869156,
0.214166671,46.41461182,
0.2158333361,46.04666519,
0.2175000012,46.31151199,
0.2191666812,46.51448822,
0.2208333313,46.29523468,
0.2225000113,46.37746048,
0.2241666615,46.67301178,
0.2258333415,45.6146965,
0.2275000066,46.05209351,
0.2291666716,45.80737305,
0.2308333367,45.91004181,
0.2325000018,45.85681915,
0.2341666669,45.91534042,
0.2358333468,46.40751266,
0.237499997,46.04634094,
0.239166677,45.4997406,
0.2408333272,45.62191772,
0.2425000072,46.23549271,
0.2441666722,46.31223297,
0.2458333373,46.36917496,
0.2475000024,45.50439072,
0.2491666675,46.20582199,
0.2508333325,46.7597847,
0.2524999976,45.65116882,
0.2541666627,46.50711441,
0.2558333278,46.44103241,
0.2574999928,46.31526184,
0.2591666579,45.73954773,
0.2608333528,46.78395081,
0.2624999881,46.08399963,
0.264166683,46.37854385,
0.2658333182,46.57217407,
0.2675000131,46.54348755,
0.2691666484,45.44776535,
0.2708333433,45.95488358,
0.2725000083,46.08553314,
0.2741666734,46.20183182,
0.2758333385,46.21180725,
0.2775000036,45.616436,
0.2791666687,45.61248779,
0.2808333337,46.10607147,
0.2824999988,46.20415497,
0.2841666937,45.26232147,
0.285833329,45.38584518,
0.287499994,45.63454056,
0.2891666591,45.84661102,
0.290833354,45.3733902,
0.2925000191,45.30398941,
0.2941666543,46.08628464,
0.2958333194,45.838871,
0.2975000143,46.25117493,
0.2991666794,46.28791809,
0.3008333445,46.14813995,
0.3024999797,45.85147476,
0.3041666746,46.08044434,
0.3058333397,45.8311348,
0.3075000048,46.03549194,
0.3091666996,45.56932068,
0.3108333349,45.72776031,
0.3125,45.13427353,
0.3141666651,46.19008255,
0.31583336,45.30095673,
0.317500025,45.98309326,
0.3191666603,46.7068367,
0.3208333254,46.26251984,
0.3225000203,46.29244995,
0.3241666853,45.98344421,
0.3258333504,46.62829971,
0.3274999857,46.2183075,
0.3291666806,46.11463165,
0.3308333457,45.46705627,
0.3325000107,45.98186874,
0.3341666758,45.64501572,
0.3358333409,45.36093903,
0.337500006,46.04115677,
0.339166671,46.31168365,
0.3408333361,45.67298508,
0.342500031,46.62400818,
0.3441666663,45.59329224,
0.3458333313,46.3988533,
0.3474999964,46.15904617,
0.3491666913,45.90485001,
0.3508333564,46.31217957,
0.3524999917,45.66608047,
0.3541666567,46.41070557,
0.3558333516,46.21158981,
0.3575000167,45.59131622,
0.3591666818,45.99319839,
0.360833317,46.35459518,
0.3625000119,45.71335983,
0.364166677,46.27791214,
0.3658333421,46.04840851,
0.3675000072,45.73521805,
0.3691666722,46.11488724,
0.3708333373,45.42667389,
0.3725000024,45.55979919,
0.3741666675,45.51909637,
0.3758333623,45.95441055,
0.3774999976,45.4587326,
0.3791666627,46.1902771,
0.3808333278,45.83935928,
0.3825000226,46.13245392,
0.3841666877,46.33809662,
0.385833323,46.18487549,
0.3874999881,46.29485321,
0.389166683,45.63742828,
0.390833348,45.51616287,
0.3925000131,46.13573837,
0.3941666484,46.08568954,
0.3958333433,46.36753464,
0.3975000083,45.88516617,
0.3991666734,45.61577606,
0.4008333385,45.45005035,
0.4025000036,46.4033432,
0.4041666687,45.72578049,
0.4058333337,45.65200043,
0.4074999988,45.80250549,
0.4091666937,45.76800537,
0.410833329,46.13082504,
0.412499994,45.50552368,
0.4141666591,45.72211075,
0.415833354,45.7303009,
0.4175000191,46.41087341,
0.4191666543,46.13347626,
0.4208333194,45.54454422,
0.4225000143,45.55843735,
0.4241666794,46.2243042,
0.4258333445,44.84700012,
0.4274999797,45.5303421,
0.4291666746,46.40927887,
0.4308333397,45.91004562,
0.4325000048,45.45066833,
0.4341666996,46.30138779,
0.4358333349,45.8188324,
0.4375,46.37797928,
0.4391666651,46.33387756,
0.44083336,46.84516907,
0.442500025,46.34558105,
0.4441666603,46.35845184,
0.4458333254,46.1577301,
0.4475000203,45.99033737,
0.4491666853,45.66307068,
0.4508333504,46.21370697,
0.4524999857,46.67329788,
0.4541666806,46.19794083,
0.4558333457,45.65185928,
0.4575000107,46.65289688,
0.4591666758,47.01134872,
0.4608333409,45.23392487,
0.462500006,45.87911987,
0.464166671,46.23028183,
0.4658333361,46.4352951,
0.467500031,46.31622696,
0.4691666663,45.81390381,
0.4708333313,45.94120407,
0.4724999964,46.66413498,
0.4741666913,46.18126297,
0.4758333564,46.66779709,
0.4774999917,46.72262955,
0.4791666567,46.37411118,
0.4808333516,45.73719406,
0.4825000167,45.66704941,
0.4841666818,46.35403061,
0.485833317,46.24209213,
0.4875000119,46.05516434,
0.489166677,46.08343887,
0.4908333421,46.06893921,
0.4925000072,45.99166107,
0.4941666722,46.04071045,
0.4958333373,46.41303635,
0.4975000024,45.62711716,
0.4991666675,46.12134171,
0.5008333325,46.08178711,
0.5024999976,45.7513504,
0.5041666627,45.59024048,
0.5058333278,46.28826904,
0.5074999928,45.47676086,
0.5091666579,45.16387177,
0.510833323,45.94655991,
0.5124999881,45.4324646,
0.5141666532,45.89073181,
0.5158333182,45.7552948,
0.5175000429,45.48378754,
0.5191666484,45.80599594,
0.5208333135,46.51205444,
0.5224999785,45.92532349,
0.5241667032,46.34667206,
0.5258333683,45.82218933,
0.5274999738,45.64284515,
0.5291666389,46.75746536,
0.5308333635,45.47195435,
0.5325000286,45.25303268,
0.5341666341,45.88406372,
0.5358333588,45.27676773,
0.5375000238,46.31346512,
0.5391666889,46.10147858,
0.540833354,45.87717056,
0.5424999595,46.0230484,
0.5441666842,46.44709015,
0.5458333492,45.28816986,
0.5475000143,44.8969841,
0.5491666794,45.75589371,
0.5508333445,45.74472809,
0.5525000095,46.38883209,
0.5541666746,46.23515701,
0.5558333993,46.21832275,
0.5575000048,46.09878922,
0.5591666698,46.48687363,
0.5608333349,46.06356049,
0.5625,46.6545105,
0.5641667247,45.60504532,
0.5658333302,46.09097672,
0.5674999952,45.71850586,
0.5691667199,46.5775032,
0.5708333254,46.21498108,
0.5725000501,46.64643097,
0.5741666555,45.6098938,
0.5758333206,45.56882095,
0.5775000453,46.37254715,
0.5791666508,46.1114502,
0.5808333755,46.17769623,
0.5825000405,46.20863342,
0.584166646,46.01520157,
0.5858333707,45.48822403,
0.5874999762,46.80739594,
0.5891667008,45.49644852,
0.5908333659,46.14796448,
0.5924999714,45.64749527,
0.5941666961,46.19869995,
0.5958333611,46.15355682,
0.5975000262,45.92185974,
0.5991666913,45.92976761,
0.6008332968,45.78359985,
0.6025000215,45.69918442,
0.6041666865,46.00482941,
0.6058333516,46.02928925,
0.6075000167,46.2819519,
0.6091666818,46.47819519,
0.6108333468,46.25482178,
0.6125000119,46.03954697,
0.614166677,45.55449677,
0.6158333421,46.34654617,
0.6175000072,46.7230072,
0.6191666722,46.22809601,
0.6208333373,45.72621536,
0.622500062,46.18387985,
0.6241666675,46.58717346,
0.6258333325,45.92710114,
0.6274999976,45.11306763,
0.6291666627,46.20539093,
0.6308333874,45.39561081,
0.6324999928,46.39280701,
0.6341666579,45.68777084,
0.6358333826,45.87823868,
0.6374999881,46.13961029,
0.6391667128,45.87388611,
0.6408333182,47.28635025,
0.6424999833,46.49953461,
0.644166708,45.82599258,
0.6458333135,46.24803543,
0.6475000381,46.17404938,
0.6491667032,46.65038681,
0.6508333087,45.79290009,
0.6525000334,45.27273941,
0.6541666389,46.44989777,
0.6558333635,46.61259842,
0.6575000286,46.81367493,
0.6591666341,45.46681976,
0.6608333588,45.98942184,
0.6625000238,46.21957016,
0.6641666889,45.72667313,
0.665833354,46.57728958,
0.6674999595,45.73015213,
0.6691666842,46.35803604,
0.6708333492,46.19448853,
0.6725000143,46.2709465,
0.6741666794,46.01607895,
0.6758333445,46.95093918,
0.6775000095,46.63819885,
0.6791666746,45.95543289,
0.6808333993,46.39530563,
0.6825000048,45.96261978,
0.6841666698,46.30603027,
0.6858333349,45.75204468,
0.6875,46.26911163,
0.6891667247,46.35951996,
0.6908333302,46.73178864,
0.6924999952,45.89648438,
0.6941667199,46.16729355,
0.6958333254,45.7797966,
0.6975000501,45.86312866,
0.6991666555,45.73237991,
0.7008333206,45.51987839,
0.7025000453,45.7569313,
0.7041666508,46.0398674,
0.7058333755,45.8381958,
0.7075000405,46.50831604,
0.709166646,45.97708511,
0.7108333707,45.41169739,
0.7124999762,45.81963348,
0.7141667008,45.77316284,
0.7158333659,45.68032455,
0.7174999714,46.53018188,
0.7191666961,46.03255844,
0.7208333611,45.69908905,
0.7225000262,46.30827332,
0.7241666913,46.08034134,
0.7258332968,46.52960205,
0.7275000215,45.47792816,
0.7291666865,45.81724167,
0.7308333516,46.49080276,
0.7325000167,46.72354126,
0.7341666818,45.81457901,
0.7358333468,46.1981926,
0.7375000119,45.39848709,
0.739166677,45.96922302,
0.7408333421,46.54894638,
0.7425000072,46.56918335,
0.7441666722,45.45055008,
0.7458333373,45.75761795,
0.747500062,46.09988403,
0.7491666675,46.37057495,
0.7508333325,46.05367661,
0.7524999976,46.51890182,
0.7541666627,46.05413055,
0.7558333874,46.1213913,
0.7574999928,46.46852875,
0.7591666579,47.11322403,
0.7608333826,46.27600479,
0.7624999881,45.84763336,
0.7641667128,46.25065231,
0.7658333182,45.87495804,
0.7674999833,46.01797485,
0.769166708,45.59610748,
0.7708333135,46.62034225,
0.7725000381,45.78334427,
0.7741667032,46.46655655,
0.7758333087,46.2933197,
0.7775000334,46.38503265,
0.7791666389,46.13905716,
0.7808333635,46.0283432,
0.7825000286,46.46827316,
0.7841666341,46.2051506,
0.7858333588,46.52305603,
0.7875000238,46.08821487,
0.7891666889,46.21782303,
0.790833354,46.41080856,
0.7924999595,46.01609802,
0.7941666842,46.26724625,
0.7958333492,46.74522018,
0.7975000143,46.18643951,
0.7991666794,46.62728119,
0.8008333445,45.43447495,
0.8025000095,45.7454071,
0.8041666746,45.87161636,
0.8058333993,45.7056694,
0.8075000048,45.51647949,
0.8091666698,45.74620438,
0.8108333349,44.86976242,
0.8125,45.76914978,
0.8141667247,46.06477356,
0.8158333302,45.76352692,
0.8174999952,46.04690933,
0.8191667199,46.30062866,
0.8208333254,45.29779053,
0.8225000501,45.52751541,
0.8241666555,46.35403824,
0.8258333206,46.03294373,
0.8275000453,46.05463791,
0.8291666508,45.98751068,
0.8308333755,45.44873047,
0.8325000405,46.2297287,
0.834166646,46.15631104,
0.8358333707,45.5359993,
0.8374999762,45.62205505,
0.8391667008,45.04527283,
0.8408333659,45.75261307,
0.8424999714,46.17875671,
0.8441666961,46.66171646,
0.8458333611,46.31575012,
0.8475000262,46.21379089,
0.8491666913,45.95886612,
0.8508332968,46.5116272,
0.8525000215,45.80410385,
0.8541666865,45.59915161,
0.8558333516,46.12672806,
0.8575000167,46.04936981,
0.8591666818,46.45452499,
0.8608333468,45.85698318,
0.8625000119,45.55437851,
0.864166677,46.15668488,
0.8658333421,45.95236206,
0.8675000072,45.82677078,
0.8691666722,45.75846863,
0.8708333373,46.22957611,
0.872500062,45.64722443,
0.8741666675,46.59880066,
0.8758333325,45.75352097,
0.8774999976,46.10087585,
0.8791666627,45.72524643,
0.8808333874,46.3951416,
0.8824999928,46.54363251,
0.8841666579,46.31577682,
0.8858333826,46.21117401,
0.8874999881,46.33304214,
0.8891667128,46.05839539,
0.8908333182,46.09310532,
0.8924999833,45.99816895,
0.894166708,45.66756058,
0.8958333135,45.6464119,
0.8975000381,46.1553421,
0.8991667032,46.0096817,
0.9008333087,46.98871231,
0.9025000334,46.11771011,
0.9041666389,45.58270264,
0.9058333635,45.90306091,
0.9075000286,45.60874557,
0.9091666341,46.31592178,
0.9108333588,45.44470596,
0.9125000238,45.68308258,
0.9141666889,46.04769516,
0.915833354,46.74742126,
0.9174999595,45.81941986,
0.9191666842,46.41807175,
0.9208333492,45.55357742,
0.9225000143,46.04457092,
0.9241666794,45.45737839,
0.9258333445,46.19608688,
0.9275000095,46.10591507,
0.9291666746,46.0182724,
0.9308333993,45.90199661,
0.9325000048,46.45397568,
0.9341666698,46.56858063,
0.9358333349,45.75391769,
0.9375,45.25836945,
0.9391667247,45.6374321,
0.9408333302,45.82942581,
0.9424999952,45.60064316,
0.9441667199,45.48869705,
0.9458333254,46.02583313,
0.9475000501,46.05382919,
0.9491666555,45.89904785,
0.9508333206,45.89620209,
0.9525000453,45.95077515,
0.9541666508,45.57961655,
0.9558333755,46.58432007,
0.9575000405,45.86398697,
0.959166646,45.57950974,
0.9608333707,46.66858673,
0.9624999762,45.8564949,
0.9641667008,46.40710449,
0.9658333659,45.86856079,
0.9674999714,45.39712906,
0.9691666961,46.4906044,
0.9708333611,46.28694534,
0.9725000262,45.68668365,
0.9741666913,45.29880142,
0.9758332968,46.14120865,
0.9775000215,45.7559166,
0.9791666865,45.57216263,
0.9808333516,45.85523224,
0.9825000167,45.78112793,
0.9841666818,46.48733521,
0.9858333468,46.32600784,
0.9875000119,46.73627472,
0.989166677,46.07133102,
0.9908333421,47.18075562,
0.9925000072,45.76568604,
0.9941666722,45.83703995,
0.9958333373,46.18951035,
0.997500062,46.36536026,
0.9991666675,45.76247787,
1.000833273,46.73722458,
1.002500057,46.51060486,
1.004166722,46.11301422,
1.005833387,45.42870712,
1.007500052,46.42520523,
1.009166598,46.59554291,
1.010833383,45.62342834,
1.012500048,46.41289139,
1.014166713,46.04101944,
1.015833378,46.40309525,
1.017500043,45.4330101,
1.019166708,46.12550735,
1.020833373,45.57885361,
1.022500038,46.33862686,
1.024166703,46.2334137,
1.025833368,46.58050537,
1.027500033,46.11784363,
1.029166698,46.26091003,
1.030833364,45.22390366,
1.032500029,45.78015137,
1.034166694,45.29125977,
1.035833359,46.51015854,
1.037500024,45.80518341,
1.039166689,46.26235962,
1.040833354,45.96125031,
1.042500019,45.44932175,
1.044166684,46.18347168,
1.045833349,45.84096146,
1.047500014,46.0092659,
1.049166679,46.20828247,
1.050833344,42.03577805,
1.05250001,47.39231491,
1.054166675,50.8645401,
1.05583334,50.74224854,
1.057500005,57.93898392,
1.05916667,60.75518036,
1.060833335,74.78443146,
1.0625,70.30300903,
1.064166665,83.02694702,
1.06583333,84.58018494,
1.067499995,80.08459473,
1.06916666,85.24462128,
1.070833325,102.5397644,
1.07249999,106.9502869,
1.074166775,109.6991425,
1.07583344,113.4675903,
1.077499986,116.9911118,
1.079166651,119.6791077,
1.080833316,122.4999847,
1.0825001,123.7882385,
1.084166765,126.6867981,
1.085833311,128.4638519,
1.087499976,130.7495422,
1.089166641,133.1193542,
1.090833426,134.4823761,
1.092500091,136.2633667,
1.094166636,139.4099579,
1.095833302,139.9850616,
1.097499967,141.9985962,
1.099166751,143.2735291,
1.100833416,146.1213684,
1.102500081,146.1836853,
1.104166627,147.29422,
1.105833292,149.7510834,
1.107500076,150.6557159,
1.109166741,151.3158417,
1.110833406,153.6433105,
1.112499952,153.9912109,
1.114166617,153.3296814,
1.115833402,156.3117218,
1.117500067,157.7624969,
1.119166732,158.0637817,
1.120833278,159.5324402,
1.122499943,158.8282623,
1.124166727,159.9389343,
1.125833392,161.3692474,
1.127500057,162.4106598,
1.129166722,162.2134094,
1.130833268,164.4448547,
1.132500052,166.0806885,
1.134166718,165.5404663,
1.135833383,166.9808655,
1.137500048,167.6370087,
1.139166594,167.4515076,
1.140833378,167.6416168,
1.142500043,168.3546906,
1.144166708,171.5515137,
1.145833373,170.2358704,
1.147499919,169.0613403,
1.149166703,171.1433411,
1.150833368,172.1364746,
1.152500033,172.9203491,
1.154166698,173.0454865,
1.155833364,173.5476532,
1.157500029,173.5993347,
1.159166694,174.9653473,
1.160833359,176.0952759,
1.162500024,174.8117828,
1.164166689,176.3838654,
1.165833354,175.7605133,
1.167500019,177.4410858,
1.169166684,177.3849945,
1.170833349,176.8455353,
1.172500014,179.5688782,
1.174166799,178.0285645,
1.175833344,177.7419434,
1.17750001,179.8794861,
1.179166675,179.5371399,
1.18083334,178.9814758,
1.182500124,181.102951,
1.18416667,181.5395355,
1.185833335,181.2110901,
1.1875,181.6676636,
1.189166665,182.4044495,
1.190833449,183.7491302,
1.192499995,182.5272369,
1.19416666,182.3934326,
1.195833325,183.3990021,
1.19749999,183.187561,
1.199166775,183.6873779,
1.20083344,184.5901794,
1.202499986,185.8542786,
1.204166651,183.8205261,
1.205833316,185.3573761,
1.2075001,185.7625122,
1.209166765,185.7241669,
1.210833311,186.5471039,
1.212499976,185.9849243,
1.214166641,186.144516,
1.215833426,186.9007721,
1.217500091,188.3499908,
1.219166636,188.3113708,
1.220833302,187.4487,
1.222499967,187.7520599,
1.224166751,187.9044342,
1.225833416,187.2695007,
1.227500081,188.3746948,
1.229166627,188.2727661,
1.230833292,188.3290558,
1.232500076,189.5001068,
1.234166741,189.4199524,
1.235833406,189.559021,
1.237499952,189.1846161,
1.239166617,188.4744568,
1.240833402,190.3418427,
1.242500067,190.3480377,
1.244166732,190.7637177,
1.245833278,190.5955658,
1.247499943,190.5813141,
1.249166727,189.6065979,
1.250833392,193.0731049,
1.252500057,191.6776733,
1.254166722,191.0198975,
1.255833268,191.8760223,
1.257500052,192.3770142,
1.259166718,193.8571167,
1.260833383,192.0886993,
1.262500048,194.0883026,
1.264166594,192.7974396,
1.265833378,192.1196594,
1.267500043,194.3218231,
1.269166708,193.0264587,
1.270833373,193.5144958,
1.272499919,191.742218,
1.274166703,194.1014252,
1.275833368,192.7497101,
1.277500033,193.5766296,
1.279166698,193.3983612,
1.280833364,193.4227295,
1.282500029,194.7928772,
1.284166694,193.3306427,
1.285833359,193.7116241,
1.287500024,194.8768921,
1.289166689,195.3984833,
1.290833354,194.863266,
1.292500019,195.2376251,
1.294166684,195.7319183,
1.295833349,193.4219666,
1.297500014,193.7949677,
1.299166799,195.65065,
1.300833344,196.1989594,
1.30250001,194.6877594,
1.304166675,196.0933228,
1.30583334,194.816925,
1.307500124,194.1696014,
1.30916667,195.3516083,
1.310833335,195.8700256,
1.3125,196.4022675,
1.314166665,195.2404938,
1.315833449,195.0042267,
1.317499995,194.2999878,
1.31916666,196.3215332,
1.320833325,197.3563232,
1.32249999,196.0295715,
1.324166775,196.5839386,
1.32583344,198.1959076,
1.327499986,197.7516327,
1.329166651,196.8778687,
1.330833316,197.0210876,
1.3325001,196.3504791,
1.334166765,197.4336548,
1.335833311,195.822052,
1.337499976,197.7894287,
1.339166641,197.0415344,
1.340833426,195.0114136,
1.342500091,198.7614288,
1.344166636,195.1724396,
1.345833302,197.6543274,
1.347499967,197.8247681,
1.349166751,197.769577,
1.350833416,197.8312988,
1.352500081,197.6715546,
1.354166627,196.8052673,
1.355833292,197.9008026,
1.357500076,197.0255737,
1.359166741,198.2284241,
1.360833406,198.230011,
1.362499952,198.1768494,
1.364166617,196.805069,
1.365833402,197.8066406,
1.367500067,198.4147339,
1.369166732,198.5333557,
1.370833278,197.7045593,
1.372499943,200.3540039,
1.374166727,198.9285583,
1.375833392,198.2883606,
1.377500057,197.8473206,
1.379166722,198.6810455,
1.380833268,198.6438141,
1.382500052,200.1355896,
1.384166718,199.0048523,
1.385833383,199.2036743,
1.387500048,198.8805237,
1.389166594,200.0112915,
1.390833378,200.6196899,
1.392500043,199.5746765,
1.394166708,199.0582123,
1.395833373,200.4388428,
1.397499919,199.1361847,
1.399166703,199.7688751,
1.400833368,200.0403748,
1.402500033,201.6836395,
1.404166698,200.339859,
1.405833364,201.6624908,
1.407500029,200.6655579,
1.409166694,198.6992493,
1.410833359,200.521759,
1.412500024,200.4432983,
1.414166689,199.8328857,
1.415833354,202.5155487,
1.417500019,200.7077332,
1.419166684,203.2155457,
1.420833349,205.4644623,
1.422500014,201.6693878,
1.424166799,201.492981,
1.425833344,201.7740173,
1.42750001,199.9493866,
1.429166675,202.3548889,
1.43083334,201.8681488,
1.432500124,199.3814087,
1.43416667,202.9511108,
1.435833335,201.329422,
1.4375,202.7696228,
1.439166665,200.5729065,
1.440833449,202.226532,
1.442499995,203.3047485,
1.44416666,201.9892426,
1.445833325,202.0292511,
1.44749999,201.0581665,
1.449166775,201.6455688,
1.45083344,203.1377716,
1.452499986,202.626236,
1.454166651,202.118866,
1.455833316,201.7350311,
1.4575001,201.8398743,
1.459166765,201.3529663,
1.460833311,202.6960449,
1.462499976,201.7843933,
1.464166641,200.5119781,
1.465833426,200.6491699,
1.467500091,202.4851379,
1.469166636,203.0215149,
1.470833302,201.3319397,
1.472499967,202.1356354,
1.474166751,202.8659973,
1.475833416,202.7181702,
1.477500081,202.8607941,
1.479166627,201.7952576,
1.480833292,201.4796906,
1.482500076,202.5118408,
1.484166741,203.2418213,
1.485833406,202.3988037,
1.487499952,202.0960083,
1.489166617,201.2664337,
1.490833402,202.381897,
1.492500067,200.91185,
1.494166732,203.9641266,
1.495833278,202.9338989,
1.497499943,203.2660065,
1.499166727,202.9291992,
1.500833392,202.6334686,
1.502500057,202.1897736,
1.504166722,201.7548065,
1.505833268,200.7905884,
1.507500052,202.3952179,
1.509166718,201.1954193,
1.510833383,203.5272217,
1.512500048,204.1629791,
1.514166594,202.4037933,
1.515833378,203.5114746,
1.517500043,203.8149109,
1.519166708,202.3683014,
1.520833373,202.9542694,
1.522499919,203.7050629,
1.524166703,203.1855621,
1.525833368,202.8241882,
1.527500033,202.4254303,
1.529166698,202.8675537,
1.530833364,203.0006866,
1.532500029,204.0112762,
1.534166694,204.4524536,
1.535833359,205.2831268,
1.537500024,203.7046051,
1.539166689,201.6755829,
1.540833354,202.5576935,
1.542500019,203.7914124,
1.544166684,203.4819183,
1.545833349,202.7286682,
1.547500014,202.6805878,
1.549166799,203.9983978,
1.550833344,204.754715,
1.55250001,203.0959015,
1.554166675,205.3568726,
1.55583334,203.4719696,
1.557500124,203.0658722,
1.55916667,203.3676453,
1.560833335,205.320343,
1.5625,203.5347748,
1.564166665,203.7040405,
1.565833449,203.2127533,
1.567499995,204.1772919,
1.56916666,204.6203461,
1.570833325,203.9124298,
1.57249999,204.1788483,
1.574166775,202.6132202,
1.57583344,204.3453369,
1.577499986,206.3622894,
1.579166651,205.4969482,
1.580833316,204.516449,
1.5825001,205.1283569,
1.584166765,203.5148621,
1.585833311,204.0366211,
1.587499976,204.4890137,
1.589166641,205.265625,
1.590833426,204.6519928,
1.592500091,205.4887085,
1.594166636,205.9104004,
1.595833302,203.7027893,
1.597499967,203.458313,
1.599166751,204.1379547,
1.600833416,205.3803253,
1.602500081,206.3820343,
1.604166627,205.0625763,
1.605833292,205.1342621,
1.607500076,204.4163513,
1.609166741,204.9766998,
1.610833406,204.6344452,
1.612499952,204.1538086,
1.614166617,204.2000885,
1.615833402,204.4713593,
1.617500067,204.0775909,
1.619166732,204.7462463,
1.620833278,205.1728821,
1.622499943,204.8896484,
1.624166727,206.0517883,
1.625833392,204.7717438,
1.627500057,204.7764435,
1.629166722,204.39534,
1.630833268,205.9462738,
1.632500052,205.0505219,
1.634166718,206.7816772,
1.635833383,206.4887238,
1.637500048,204.7511139,
1.639166594,204.1682434,
1.640833378,205.8072052,
1.642500043,205.322525,
1.644166708,205.5290985,
1.645833373,205.6702881,
1.647499919,203.3065338,
1.649166703,203.4468536,
1.650833368,204.7707977,
1.652500033,206.1661835,
1.654166698,204.2801361,
1.655833364,206.1728821,
1.657500029,205.4809418,
1.659166694,205.0699768,
1.660833359,205.6645813,
1.662500024,205.6528015,
1.664166689,204.627533,
1.665833354,205.9033508,
1.667500019,205.2132874,
1.669166684,205.6306915,
1.670833349,204.6862793,
1.672500014,205.0724792,
1.674166799,206.3362122,
1.675833344,204.8543701,
1.67750001,204.5836334,
1.679166675,205.6790009,
1.68083334,206.142395,
1.682500124,205.4597168,
1.68416667,205.7236938,
1.685833335,204.2362061,
1.6875,204.0888062,
1.689166665,205.6059418,
1.690833449,204.8430176,
1.692499995,204.4418182,
1.69416666,204.8933868,
1.695833325,206.3601532,
1.69749999,205.4495087,
1.699166775,205.7056274,
1.70083344,205.1109467,
1.702499986,206.5580292,
1.704166651,206.9991608,
1.705833316,206.6611481,
1.7075001,206.1236115,
1.709166765,205.5422516,
1.710833311,206.0876465,
1.712499976,205.6912537,
1.714166641,207.2257843,
1.715833426,205.9672241,
1.717500091,205.3893585,
1.719166636,205.21138,
1.720833302,205.844986,
1.722499967,205.9610291,
1.724166751,205.9400024,
1.725833416,205.96521,
1.727500081,206.3775482,
1.729166627,202.9433746,
1.730833292,204.8182678,
1.732500076,205.2695923,
1.734166741,205.8913116,
1.735833406,205.7389526,
1.737499952,206.7176666,
1.739166617,206.3157654,
1.740833402,206.3089294,
1.742500067,207.284729,
1.744166732,206.798233,
1.745833278,205.1112518,
1.747499943,206.105011,
1.749166727,206.9654846,
1.750833392,205.605545,
1.752500057,207.0160675,
1.754166722,207.4385986,
1.755833268,206.8663177,
1.757500052,205.4407196,
1.759166718,205.4731445,
1.760833383,207.4833679,
1.762500048,206.5565948,
1.764166594,208.3779907,
1.765833378,207.4499207,
1.767500043,206.4549103,
1.769166708,206.7075348,
1.770833373,207.3692017,
1.772499919,205.5676422,
1.774166703,206.1050415,
1.775833368,205.9611664,
1.777500033,205.1394806,
1.779166698,206.776886,
1.780833364,205.7969208,
1.782500029,206.4721985,
1.784166694,207.6734924,
1.785833359,207.0484314,
1.787500024,205.9355164,
1.789166689,207.7931671,
1.790833354,206.5032959,
1.792500019,205.9970245,
1.794166684,208.2684631,
1.795833349,207.3137817,
1.797500014,206.818634,
1.799166799,206.5633087,
1.800833344,206.338562,
1.80250001,205.5407104,
1.804166675,205.567749,
1.80583334,206.842041,
1.807500124,205.4382172,
1.80916667,206.7383118,
1.810833335,206.9718933,
1.8125,206.0257263,
1.814166665,206.1374512,
1.815833449,206.3805542,
1.817499995,208.575882,
1.81916666,206.7479248,
1.820833325,205.7821808,
1.82249999,206.3578796,
1.824166775,207.759079,
1.82583344,207.2181244,
1.827499986,206.4907227,
1.829166651,206.2154846,
1.830833316,206.6794891,
1.8325001,207.4272461,
1.834166765,207.3331299,
1.835833311,207.4599457,
1.837499976,206.8579559,
1.839166641,208.7192841,
1.840833426,207.4637909,
1.842500091,206.4695435,
1.844166636,205.8228455,
1.845833302,208.9093628,
1.847499967,207.6831818,
1.849166751,207.7624054,
1.850833416,207.289032,
1.852500081,208.1503906,
1.854166627,206.8904266,
1.855833292,207.093399,
1.857500076,207.365921,
1.859166741,206.7784576,
1.860833406,206.7063141,
1.862499952,208.1009521,
1.864166617,206.7312775,
1.865833402,207.7925262,
1.867500067,207.0974274,
1.869166732,207.4342651,
1.870833278,207.7405243,
1.872499943,207.6306763,
1.874166727,209.1193542,
1.875833392,207.6213226,
1.877500057,207.1114044,
1.879166722,205.9986877,
1.880833268,208.3020172,
1.882500052,206.3310699,
1.884166718,206.5813293,
1.885833383,208.3694916,
1.887500048,207.6576996,
1.889166594,206.9799194,
1.890833378,209.2198639,
1.892500043,208.486145,
1.894166708,208.356308,
1.895833373,206.5275269,
1.897499919,208.6763306,
1.899166703,206.9715118,
1.900833368,207.1497345,
1.902500033,206.9849396,
1.904166698,207.7561798,
1.905833364,206.6268311,
1.907500029,206.5574188,
1.909166694,207.6141052,
1.910833359,207.8933105,
1.912500024,207.2082214,
1.914166689,209.5901794,
1.915833354,207.4873505,
1.917500019,207.497818,
1.919166684,207.5457764,
1.920833349,207.3331299,
1.922500014,206.994751,
1.924166799,204.7980499,
1.925833344,207.6104431,
1.92750001,207.535202,
1.929166675,207.7593842,
1.93083334,206.7085114,
1.932500124,206.2740326,
1.93416667,207.0190735,
1.935833335,206.5282745,
1.9375,208.2897949,
1.939166665,208.2618408,
1.940833449,207.3680573,
1.942499995,206.664566,
1.94416666,208.6893921,
1.945833325,208.7924957,
1.94749999,206.6136322,
1.949166775,208.6451111,
1.95083344,207.9095612,
1.952499986,208.1027679,
1.954166651,208.6150513,
1.955833316,208.4549255,
1.9575001,207.6697235,
1.959166765,207.6147614,
1.960833311,207.9090881,
1.962499976,208.2484131,
1.964166641,207.4194031,
1.965833426,207.0939636,
1.967500091,207.6575623,
1.969166636,207.0939789,
1.970833302,207.4618225,
1.972499967,208.4987183,
1.974166751,207.3558197,
1.975833416,209.6822205,
1.977500081,206.9191437,
1.979166627,208.1312256,
1.980833292,208.0801086,
1.982500076,209.3637848,
1.984166741,208.0549927,
1.985833406,207.6340942,
1.987499952,209.0319672,
1.989166617,207.6490936,
1.990833402,207.7734375,
1.992500067,208.3134766,
1.994166732,206.9776917,
1.995833278,208.0079803,
1.997499943,209.825531,
1.999166727,207.7901154,
2.000833273,207.8436432,
2.002500057,208.4573822,
2.004166603,208.267807,
2.005833387,207.8065491,
2.007500172,208.180481,
2.009166718,208.9129333,
2.010833263,208.9381714,
2.012500048,207.0158691,
2.014166594,209.0839691,
2.015833378,207.6328125,
2.017500162,207.6200867,
2.019166708,209.1131287,
2.020833254,209.1206512,
2.022500038,208.865799,
2.024166822,208.5791626,
2.025833368,207.4289551,
2.027499914,208.1307678,
2.029166698,208.5124817,
2.030833244,208.4040375,
2.032500029,208.3615417,
2.034166813,207.0828247,
2.035833359,209.1248016,
2.037499905,207.4655914,
2.039166689,208.7647552,
2.040833473,207.8841095,
2.042500019,208.9281158,
2.044166803,208.0933228,
2.045833349,207.6576996,
2.047499895,206.7318573,
2.049166679,209.2828674,
2.050833464,208.9573364,
2.05250001,207.8485107,
2.054166555,207.4130249,
2.05583334,207.5977936,
2.057500124,208.5749359,
2.05916667,208.1791687,
2.060833454,207.7996979,
2.0625,207.3018036,
2.064166546,207.1281281,
2.06583333,208.8214111,
2.067500114,208.4225006,
2.06916666,206.8329926,
2.070833445,207.7823181,
2.07249999,208.3722076,
2.074166775,209.6545715,
2.075833321,208.3514404,
2.077500105,208.5375366,
2.079166651,207.8166351,
2.080833197,208.6041565,
2.082499981,209.4391022,
2.084166765,208.4492493,
2.085833311,207.2954865,
2.087500095,209.286438,
2.089166641,208.5039368,
2.090833426,209.497818,
2.092499971,207.9892883,
2.094166756,208.2497406,
2.095833302,207.8137054,
2.097500086,208.6606293,
2.099166632,208.4433289,
2.100833416,207.2619171,
2.102499962,209.286438,
2.104166746,208.2800751,
2.105833292,209.0694122,
2.107500076,207.0623627,
2.109166622,206.7836456,
2.110833406,207.6489563,
2.112499952,209.38591,
2.114166737,209.1714325,
2.115833521,206.4109802,
2.117500067,208.313797,
2.119166613,209.4846497,
2.120833397,208.9637451,
2.122499943,206.9407501,
2.124166727,208.3300476,
2.125833273,207.6412659,
2.127500057,207.6654968,
2.129166603,208.6852264,
2.130833387,209.2369843,
2.132500172,208.0583038,
2.134166718,209.5522919,
2.135833502,209.030899,
2.137500048,207.9437103,
2.139166832,209.2055359,
2.140833378,209.2664948,
2.142500162,208.1958618,
2.144166708,210.13591,
2.145833254,209.9798126,
2.147500038,209.9912262,
2.149166584,209.6872406,
2.150833368,207.7300262,
2.152500153,209.3370819,
2.154166698,210.504776,
2.155833483,207.1986237,
2.157500029,209.7395325,
2.159166813,208.484726,
2.160833597,209.4705505,
2.162499905,210.0684967,
2.164166689,207.2064819,
2.165833235,208.3138885,
2.167500019,209.3183899,
2.169166803,208.6680145,
2.170833349,208.5800781,
2.172500134,207.6211853,
2.174166679,208.1249542,
2.175833464,209.2603455,
2.177500248,208.0683746,
2.179166555,209.6463776,
2.18083334,208.6688538,
2.182499886,208.4955444,
2.18416667,208.9181061,
2.185833454,209.4487762,
2.1875,209.807785,
2.189166784,208.9484711,
2.19083333,210.1556244,
2.192500114,209.2062378,
2.194166899,209.0222015,
2.195833445,209.0799103,
2.19749999,208.0692139,
2.199166536,208.8564758,
2.200833321,209.5904541,
2.202500105,208.3874817,
2.204166651,207.8766174,
2.205833435,211.6957397,
2.207499981,210.0927277,
2.209166765,208.9141998,
2.210833549,208.7324066,
2.212500095,210.2549286,
2.21416688,208.7263489,
2.215833187,209.1492157,
2.217499971,210.4707184,
2.219166756,209.3193817,
2.220833302,210.3402863,
2.222500086,209.0032349,
2.224166632,208.695343,
2.225833416,209.8007965,
2.2275002,208.4100189,
2.229166746,210.0710907,
2.23083353,209.5833435,
2.232499838,209.2829742,
2.234166622,209.219162,
2.235833406,208.9282837,
2.237499952,209.5025635,
2.239166737,210.2844696,
2.240833282,208.5948029,
2.242500067,208.796875,
2.244166851,210.8822479,
2.245833397,208.0093079,
2.247500181,208.7837982,
2.249166727,208.1349792,
2.250833273,208.537384,
2.252500057,209.9031372,
2.254166603,210.3830872,
2.255833387,209.2953796,
2.257499933,209.9632568,
2.259166718,208.7962952,
2.260833502,208.965271,
2.262500048,209.570343,
2.264166832,208.6949615,
2.265833378,209.1751251,
2.267500162,209.2801056,
2.269166708,209.4914093,
2.270833254,209.0486603,
2.272500038,209.5372467,
2.274166584,209.657547,
2.275833368,210.0708313,
2.277500153,210.3912201,
2.279166698,209.1605988,
2.280833483,209.1005859,
2.282500029,210.1005859,
2.284166813,209.8611298,
2.285833597,208.64711,
2.287499905,208.8195496,
2.289166689,210.5580139,
2.290833235,211.0023804,
2.292500019,208.9624939,
2.294166803,210.0053253,
2.295833349,210.3865662,
2.297500134,209.9043274,
2.299166679,208.7242126,
2.300833464,209.9433746,
2.302500248,208.8071289,
2.304166555,208.9667664,
2.30583334,208.0050507,
2.307499886,210.2283325,
2.30916667,210.392334,
2.310833454,210.0786438,
2.3125,209.2155914,
2.314166784,209.8153076,
2.31583333,209.8026123,
2.317500114,208.4671478,
2.319166899,210.7654419,
2.320833445,210.1066742,
2.32249999,207.7614899,
2.324166536,210.2610168,
2.325833321,210.4868164,
2.327500105,208.9565735,
2.329166651,209.8632813,
2.330833435,209.8905334,
2.332499981,210.6218872,
2.334166765,209.2390747,
2.335833549,209.2720032,
2.337500095,209.3723602,
2.33916688,209.1152496,
2.340833187,208.7013702,
2.342499971,209.0386963,
2.344166756,208.3145752,
2.345833302,208.5817566,
2.347500086,210.6903992,
2.349166632,209.2159729,
2.350833416,209.2189636,
2.3525002,207.8288727,
2.354166746,208.3909302,
2.35583353,208.8231812,
2.357499838,208.6572723,
2.359166622,209.0509338,
2.360833406,210.5577393,
2.362499952,210.1252441,
2.364166737,210.7592468,
2.365833282,208.6800232,
2.367500067,209.5800934,
2.369166851,209.9775696,
2.370833397,208.073761,
2.372500181,209.3139343,
2.374166727,209.0730286,
2.375833273,210.4420013,
2.377500057,208.2164459,
2.379166603,208.7094116,
2.380833387,210.8342438,
2.382499933,210.1434021,
2.384166718,210.5417938,
2.385833502,210.0604553,
2.387500048,209.5326996,
2.389166832,210.1033478,
2.390833378,208.4302368,
2.392500162,210.0694122,
2.394166708,209.3830872,
2.395833254,210.2678528,
2.397500038,209.5225067,
2.399166584,209.6980591,
2.400833368,208.3139801,
2.402500153,208.8039093,
2.404166698,210.1324463,
2.405833483,210.408905,
2.407500029,209.845993,
2.409166813,210.606369,
2.410833597,210.9774475,
2.412499905,210.3168182,
2.414166689,209.038269,
2.415833235,209.8496399,
2.417500019,209.5079041,
2.419166803,209.9301605,
2.420833349,210.609314,
2.422500134,210.3733673,
2.424166679,210.3152161,
2.425833464,210.6824036,
2.427500248,210.9547424,
2.429166555,209.661377,
2.43083334,210.2459412,
2.432499886,209.2065277,
2.43416667,208.8320923,
2.435833454,212.0783844,
2.4375,209.0741577,
2.439166784,209.4639435,
2.44083333,209.1647186,
2.442500114,210.1236725,
2.444166899,210.5911865,
2.445833445,209.0937805,
2.44749999,211.4804382,
2.449166536,208.828125,
2.450833321,209.2949219,
2.452500105,209.5715179,
2.454166651,209.0925598,
2.455833435,209.5464325,
2.457499981,211.1109009,
2.459166765,210.3830414,
2.460833549,210.0627747,
2.462500095,211.4304504,
2.46416688,210.1480255,
2.465833187,207.818161,
2.467499971,209.9839935,
2.469166756,210.5649872,
2.470833302,210.6613159,
2.472500086,210.6204376,
2.474166632,209.4086456,
2.475833416,209.2465057,
2.4775002,210.5430756,
2.479166746,210.7899475,
2.48083353,211.1416168,
2.482499838,210.8229523,
2.484166622,209.3208466,
2.485833406,211.3274689,
2.487499952,209.1156158,
2.489166737,209.0699768,
2.490833282,210.7161865,
2.492500067,209.7199554,
2.494166851,209.9800262,
2.495833397,209.9241028,
2.497500181,209.3166199,
2.499166727,210.6619415,
2.500833273,210.4432526,
2.502500057,210.1756897,
2.504166603,208.9971771,
2.505833387,210.4743652,
2.507499933,210.2541046,
2.509166718,209.6775208,
2.510833502,208.5800476,
2.512500048,210.7663727,
2.514166832,210.9390106,
2.515833378,210.5769043,
2.517500162,208.8246155,
2.519166708,210.1270447,
2.520833254,210.2910919,
2.522500038,211.3764648,
2.524166584,211.8366089,
2.525833368,209.9381409,
2.527500153,208.5534973,
2.529166698,210.0034027,
2.530833483,209.9755249,
2.532500029,209.1396942,
2.534166813,210.2014923,
2.535833597,211.3798676,
2.537499905,209.3498535,
2.539166689,209.6083984,
2.540833235,209.9964752,
2.542500019,208.4963989,
2.544166803,207.9682465,
2.545833349,211.5141449,
2.547500134,209.6694336,
2.549166679,210.6537781,
2.550833464,211.1444855,
2.552500248,209.2859497,
2.554166555,209.2622528,
2.55583334,208.4404602,
2.557499886,212.4554596,
2.55916667,210.7072296,
2.560833454,210.4764862,
2.5625,209.811554,
2.564166784,209.6245422,
2.56583333,209.6699677,
2.567500114,209.7088928,
2.569166899,209.7473145,
2.570833445,210.223114,
2.57249999,209.2566681,
2.574166536,210.6990967,
2.575833321,211.121109,
2.577500105,210.734024,
2.579166651,208.9280396,
2.580833435,207.9720612,
2.582499981,210.2187195,
2.584166765,209.9314728,
2.585833549,211.2087402,
2.587500095,209.966217,
2.58916688,212.0039368,
2.590833187,210.2332458,
2.592499971,209.6294403,
2.594166756,210.4777527,
2.595833302,209.1520233,
2.597500086,210.0845032,
2.599166632,213.1159973,
2.600833416,209.913559,
2.6025002,210.5505676,
2.604166746,209.4364624,
2.60583353,209.4010162,
2.607499838,210.3609009,
2.609166622,210.2898865,
2.610833406,210.0946198,
2.612499952,210.3710785,
2.614166737,210.8360901,
2.615833282,209.3111877,
2.617500067,210.8766632,
2.619166851,210.3228149,
2.620833397,210.424942,
2.622500181,210.5269623,
2.624166727,211.6000214,
2.625833273,210.3637238,
2.627500057,209.4178619,
2.629166603,211.4311981,
2.630833387,210.7609711,
2.632499933,210.0462189,
2.634166718,211.2730713,
2.635833502,210.3441772,
2.637500048,210.7604065,
2.639166832,211.8855896,
2.640833378,209.9844513,
2.642500162,209.7037659,
2.644166708,211.0124207,
2.645833254,211.2466278,
2.647500038,210.679184,
2.649166584,209.2545776,
2.650833368,211.2384491,
2.652500153,211.1810913,
2.654166698,210.0005493,
2.655833483,208.810379,
2.657500029,210.4227448,
2.659166813,210.9511566,
2.660833597,210.578186,
2.662499905,210.9881897,
2.664166689,210.8672791,
2.665833235,209.7668762,
2.667500019,211.4549561,
2.669166803,211.7186432,
2.670833349,210.3421326,
2.672500134,211.3004456,
2.674166679,212.1777802,
2.675833464,211.0795898,
2.677500248,209.9825439,
2.679166555,210.6428833,
2.68083334,209.9560852,
2.682499886,210.4437714,
2.68416667,210.3428345,
2.685833454,209.9948883,
2.6875,210.7911835,
2.689166784,210.3572388,
2.69083333,211.0689697,
2.692500114,210.8832245,
2.694166899,211.1177216,
2.695833445,210.1139832,
2.69749999,209.8800812,
2.699166536,210.7780151,
2.700833321,211.5046387,
2.702500105,209.6357727,
2.704166651,211.0529175,
2.705833435,211.7988434,
2.707499981,210.8030701,
2.709166765,210.7612915,
2.710833549,210.8292084,
2.712500095,211.5549011,
2.71416688,207.6820984,
2.715833187,211.6006165,
2.717499971,212.8867035,
2.719166756,211.0908966,
2.720833302,210.8232727,
2.722500086,210.7156982,
2.724166632,211.2391205,
2.725833416,210.0020599,
2.7275002,210.8850098,
2.729166746,211.2372284,
2.73083353,209.3603668,
2.732499838,210.5200043,
2.734166622,209.9777985,
2.735833406,211.9617615,
2.737499952,210.8028717,
2.739166737,211.7995911,
2.740833282,211.5762177,
2.742500067,211.3174286,
2.744166851,210.6589813,
2.745833397,210.2476654,
2.747500181,209.7579041,
2.749166727,210.6114502,
2.750833273,211.2312622,
2.752500057,211.7753448,
2.754166603,210.7263947,
2.755833387,211.8518982,
2.757499933,210.8184662,
2.759166718,211.1506042,
2.760833502,211.4640045,
2.762500048,211.672821,
2.764166832,211.0943298,
2.765833378,211.1615143,
2.767500162,211.6867523,
2.769166708,209.5247192,
2.770833254,210.6637726,
2.772500038,210.0142822,
2.774166584,211.9286957,
2.775833368,210.5736694,
2.777500153,210.6938171,
2.779166698,210.6764526,
2.780833483,209.9689941,
2.782500029,211.5311737,
2.784166813,211.4920959,
2.785833597,209.4723969,
2.787499905,209.7549591,
2.789166689,211.6385193,
2.790833235,213.453537,
2.792500019,211.7107849,
2.794166803,210.722168,
2.795833349,209.9507141,
2.797500134,209.5408936,
2.799166679,211.8468475,
2.800833464,210.7785797,
2.802500248,211.7409058,
2.804166555,209.9509125,
2.80583334,210.4502411,
2.807499886,211.3032379,
2.80916667,211.5075836,
2.810833454,212.1911621,
2.8125,211.1164856,
2.814166784,212.2098389,
2.81583333,210.4133453,
2.817500114,210.9905701,
2.819166899,210.8200531,
2.820833445,211.9501648,
2.82249999,211.1686249,
2.824166536,212.0144958,
2.825833321,210.8361664,
2.827500105,211.0569763,
2.829166651,209.1008148,
2.830833435,213.1152802,
2.832499981,210.9161682,
2.834166765,211.593277,
2.835833549,212.0832977,
2.837500095,211.7199402,
2.83916688,210.6168213,
2.840833187,210.6667328,
2.842499971,211.3991852,
2.844166756,210.0228882,
2.845833302,210.7080841,
2.847500086,212.101532,
2.849166632,212.4089966,
2.850833416,211.9278259,
2.8525002,209.4967194,
2.854166746,212.6119232,
2.85583353,211.5016479,
2.857499838,211.3280182,
2.859166622,210.2003174,
2.860833406,210.7756653,
2.862499952,211.7932892,
2.864166737,211.2591705,
2.865833282,211.2086334,
2.867500067,212.0274963,
2.869166851,211.6183624,
2.870833397,210.3287354,
2.872500181,211.1693726,
2.874166727,210.7824097,
2.875833273,211.3171234,
2.877500057,211.327179,
2.879166603,210.7762756,
2.880833387,211.4457703,
2.882499933,210.1918182,
2.884166718,210.7837067,
2.885833502,213.105835,
2.887500048,212.3954468,
2.889166832,210.5167999,
2.890833378,212.2201538,
2.892500162,210.9359741,
2.894166708,211.0167542,
2.895833254,210.3311005,
2.897500038,210.4091187,
2.899166584,212.2741241,
2.900833368,211.2259521,
2.902500153,210.4723206,
2.904166698,210.4470825,
2.905833483,212.3686371,
2.907500029,210.9212341,
2.909166813,211.749939,
2.910833597,209.921814,
2.912499905,212.582962,
2.914166689,209.4528351,
2.915833235,210.0204926,
2.917500019,211.3119354,
2.919166803,211.0440063,
2.920833349,211.9331818,
2.922500134,211.114151,
2.924166679,210.7791138,
2.925833464,212.2619629,
2.927500248,210.7315063,
2.929166555,213.5504303,
2.93083334,209.8179779,
2.932499886,211.3675079,
2.93416667,212.5434265,
2.935833454,211.507843,
2.9375,210.922348,
2.939166784,210.2757721,
2.94083333,210.7086029,
2.942500114,210.6933594,
2.944166899,211.4645081,
2.945833445,211.1108398,
2.94749999,212.3196869,
2.949166536,211.5271912,
2.950833321,211.2477417,
2.952500105,212.1672058,
2.954166651,210.7870178,
2.955833435,211.608551,
2.957499981,211.2434082,
2.959166765,211.6657562,
2.960833549,211.5453491,
2.962500095,210.4596558,
2.96416688,213.5481415,
2.965833187,211.4072571,
2.967499971,212.5250092,
2.969166756,210.6699219,
2.970833302,210.0463409,
2.972500086,211.1640167,
2.974166632,210.7874298,
2.975833416,210.2321777,
2.9775002,211.5581818,
2.979166746,211.7007599,
2.98083353,211.2152863,
2.982499838,210.3882599,
2.984166622,210.456955,
2.985833406,212.2289124,
2.987499952,211.2667084,
2.989166737,210.9711304,
2.990833282,212.72612,
2.992500067,212.9755859,
2.994166851,211.5569458,
2.995833397,211.6683197,
2.997500181,209.7251892,
2.999166727,211.7431183,
3.000833273,210.8323669,
3.002500057,212.2256317,
3.004166603,210.7889404,
3.005833387,213.4133453,
3.007499933,211.5081635,
3.009166718,211.564209,
3.010833502,212.34935,
3.012500048,211.4478302,
3.014166832,211.3022308,
3.015833378,210.3359375,
3.017500162,211.2792511,
3.019166708,210.6387634,
3.020833254,210.802597,
3.022500038,212.7609711,
3.024166584,211.4623413,
3.025833368,210.8185272,
3.027500153,211.0360565,
3.029166698,212.2069397,
3.030833483,212.3592224,
3.032500029,210.505722,
3.034166813,210.5240936,
3.035833597,211.9687805,
3.037499905,211.9842072,
3.039166689,212.0215454,
3.040833235,211.9204559,
3.042500019,210.6012726,
3.044166803,210.158844,
3.045833349,210.2367401,
3.047500134,211.8283386,
3.049166679,212.8820343,
3.050833464,210.5099182,
3.052500248,210.4797058,
3.054166555,211.6005096,
3.05583334,210.6504059,
3.057499886,211.6203766,
3.05916667,210.8643951,
3.060833454,212.8119659,
3.0625,213.3580322,
3.064166784,212.3277588,
3.06583333,211.2063293,
3.067500114,210.6406555,
3.069166899,210.7846985,
3.070833445,212.6966858,
3.07249999,211.8040161,
3.074166536,211.1644592,
3.075833321,212.337265,
3.077500105,210.7536469,
3.079166651,211.5683136,
3.080833435,212.5072327,
3.082499981,211.9783325,
3.084166765,211.2757263,
3.085833549,211.1181335,
3.087500095,213.5225067,
3.08916688,211.231842,
3.090833187,210.8685303,
3.092499971,211.4174194,
3.094166756,210.9331512,
3.095833302,210.7933807,
3.097500086,212.4994659,
3.099166632,210.7740021,
3.100833416,211.6309357,
3.1025002,210.9571381,
3.104166746,210.8690643,
3.10583353,211.0527344,
3.107499838,211.2039185,
3.109166622,211.3886871,
3.110833406,211.446167,
3.112499952,210.9598999,
3.114166737,210.9933167,
3.115833282,211.6058655,
3.117500067,210.8693237,
3.119166851,212.6346436,
3.120833397,210.6653137,
3.122500181,211.4903412,
3.124166727,212.2632599,
3.125833273,212.0963898,
3.127500057,211.645813,
3.129166603,212.2952728,
3.130833387,210.9977722,
3.132499933,213.3768616,
3.134166718,211.9424744,
3.135833502,210.0990448,
3.137500048,211.0236359,
3.139166832,210.8690948,
3.140833378,210.809433,
3.142500162,212.6991882,
3.144166708,211.4096985,
3.145833254,212.0539551,
3.147500038,210.5541992,
3.149166584,211.5789337,
3.150833368,210.0816956,
3.152500153,211.0494843,
3.154166698,210.569397,
3.155833483,213.5934296,
3.157500029,213.1888275,
3.159166813,211.1573944,
3.160833597,211.9746704,
3.162499905,212.3248901,
3.164166689,211.3668671,
3.165833235,211.8280792,
3.167500019,211.997818,
3.169166803,213.2338409,
3.170833349,213.0574951,
3.172500134,212.9633636,
3.174166679,210.7776031,
3.175833464,212.3196716,
3.177500248,211.2973022,
3.179166555,211.5239868,
3.18083334,211.0699463,
3.182499886,212.0384827,
3.18416667,211.6839447,
3.185833454,210.9824982,
3.1875,212.7508087,
3.189166784,211.2103271,
3.19083333,211.5786133,
3.192500114,212.5590363,
3.194166899,212.2750244,
3.195833445,212.257782,
3.19749999,211.2753143,
3.199166536,212.9009094,
3.200833321,211.442627,
3.202500105,211.4596405,
3.204166651,210.9842529,
3.205833435,211.8125763,
3.207499981,210.9020691,
3.209166765,213.2160034,
3.210833549,210.0052795,
3.212500095,211.3723755,
3.21416688,211.5656281,
3.215833187,213.1770477,
3.217499971,213.315094,
3.219166756,210.6520996,
3.220833302,211.7617645,
3.222500086,212.2387695,
3.224166632,210.4270172,
3.225833416,210.958725,
3.2275002,211.4940643,
3.229166746,211.5801239,
3.23083353,212.8033142,
3.232499838,212.7705078,
3.234166622,210.7986298,
3.235833406,212.0028992,
3.237499952,212.6490173,
3.239166737,212.8313293,
3.240833282,211.9298706,
3.242500067,212.1679535,
3.244166851,213.4342346,
3.245833397,212.231369,
3.247500181,213.21138,
3.249166727,212.1428375,
3.250833273,211.3989563,
3.252500057,212.5471039,
3.254166603,212.1654358,
3.255833387,211.425766,
3.257499933,210.5587921,
3.259166718,211.7322845,
3.260833502,210.4710693,
3.262500048,211.3735199,
3.264166832,212.9311523,
3.265833378,209.7445831,
3.267500162,211.6472168,
3.269166708,211.445816,
3.270833254,210.6663055,
3.272500038,211.6397095,
3.274166584,211.6770172,
3.275833368,210.8494873,
3.277500153,212.6132355,
3.279166698,212.5086823,
3.280833483,213.1715393,
3.282500029,212.1578827,
3.284166813,212.967804,
3.285833597,212.6356964,
3.287499905,211.4278107,
3.289166689,211.4190674,
3.290833235,213.0405731,
3.292500019,213.5460968,
3.294166803,210.941391,
3.295833349,212.1871796,
3.297500134,211.4150238,
3.299166679,214.0630188,
3.300833464,212.9829102,
3.302500248,211.8581238,
3.304166555,212.8166046,
3.30583334,211.6929626,
3.307499886,212.2845001,
3.30916667,212.5497131,
3.310833454,212.8701172,
3.3125,211.9438629,
3.314166784,212.649231,
3.31583333,212.0258331,
3.317500114,211.9235535,
3.319166899,212.8043671,
3.320833445,211.3937836,
3.32249999,212.5340424,
3.324166536,211.640625,
3.325833321,211.851944,
3.327500105,212.2922668,
3.329166651,211.6086426,
3.330833435,211.736969,
3.332499981,211.7978821,
3.334166765,212.4983826,
3.335833549,212.2954407,
3.337500095,211.3170929,
3.33916688,211.6631165,
3.340833187,212.0213928,
3.342499971,212.4807739,
3.344166756,213.0488281,
3.345833302,213.1820679,
3.347500086,212.8418121,
3.349166632,212.0631561,
3.350833416,212.1902618,
3.3525002,212.5836639,
3.354166746,212.35672,
3.35583353,211.0578613,

