1,,
Time (min),Intensity (a.u.),
0.0008333333535,47.98007965,
0.002500000177,47.68100739,
0.004166666884,48.50794983,
0.005833333358,47.85091782,
0.007500000298,48.09871292,
0.009166667238,47.8142662,
0.01083333418,47.86561203,
0.01250000019,47.97367859,
0.01416666713,48.29213715,
0.01583333313,48.00472641,
0.01750000194,47.99878311,
0.01916666701,47.75841904,
0.02083333395,47.83001709,
0.02250000089,48.1735878,
0.02416666783,47.87273788,
0.02583333477,47.56774902,
0.02749999985,47.15409851,
0.02916666679,48.30375671,
0.03083333373,47.98397446,
0.03250000253,47.58891296,
0.03416666761,47.96472549,
0.03583333641,47.56251526,
0.03750000149,48.25717926,
0.03916667029,47.2613945,
0.04083333537,48.0378685,
0.04250000045,48.16871262,
0.04416666925,48.42322159,
0.04583333433,48.09975433,
0.04750000313,47.97711945,
0.04916666821,48.34015656,
0.05083333328,48.88832092,
0.05250000209,48.18728256,
0.05416666716,48.03770447,
0.05583333597,48.24950027,
0.05750000104,48.15555573,
0.05916666612,47.89571762,
0.06083333492,48.26772308,
0.0625,48.40956879,
0.06416667253,47.78264236,
0.0658333376,48.81684113,
0.06750000268,48.36211395,
0.06916666776,47.35851288,
0.07083333284,48.4824295,
0.07249999791,48.20956802,
0.07416667044,47.57108688,
0.07583333552,47.97365189,
0.0775000006,48.04888916,
0.07916666567,48.57694244,
0.08083333075,47.90927124,
0.08250000328,48.26585007,
0.08416666836,48.42626572,
0.08583333343,47.66379547,
0.08749999851,48.50921249,
0.08916666359,47.91106033,
0.09083333611,47.86529541,
0.09250000119,48.04191589,
0.09416666627,47.90878677,
0.09583333135,48.16682816,
0.09749999642,47.88550568,
0.09916666895,48.65247345,
0.100833334,47.72596741,
0.1024999991,47.80220795,
0.1041666642,48.29302597,
0.1058333293,48.4716835,
0.1075000018,48.39922714,
0.1091666669,47.88063812,
0.1108333319,47.54506683,
0.112499997,47.59040833,
0.1141666621,47.96287155,
0.1158333346,47.73445511,
0.1174999997,48.11375046,
0.1191666648,47.64625549,
0.1208333299,48.51019287,
0.1224999949,48.14211655,
0.1241666749,47.944664,
0.1258333325,47.7504921,
0.1274999976,48.06978989,
0.1291666627,48.07188797,
0.1308333278,47.58680344,
0.1325000077,47.53059769,
0.1341666728,47.84680176,
0.1358333379,48.17555237,
0.137500003,48.08239365,
0.1391666681,48.12590408,
0.1408333331,47.70670319,
0.1424999982,48.47451401,
0.1441666782,47.35822296,
0.1458333284,48.01477814,
0.1475000083,47.8637886,
0.1491666585,48.49266815,
0.1508333385,47.40705872,
0.1525000036,47.8194313,
0.1541666687,48.45782852,
0.1558333337,48.58375168,
0.1574999988,47.68479156,
0.1591666639,47.92794037,
0.1608333439,48.53860092,
0.162499994,47.27079391,
0.164166674,48.13377762,
0.1658333242,47.63091278,
0.1675000042,48.67504501,
0.1691666692,47.80994415,
0.1708333343,48.25430298,
0.1724999994,47.76291656,
0.1741666645,48.28173447,
0.1758333296,48.09202576,
0.1775000095,47.7540741,
0.1791666597,47.59871292,
0.1808333397,47.93083572,
0.1824999899,48.12965012,
0.1841666698,47.61790848,
0.1858333498,48.21634674,
0.1875,47.86136627,
0.18916668,48.05703735,
0.1908333302,47.7314682,
0.1925000101,47.72615814,
0.1941666752,48.06663895,
0.1958333403,47.91217422,
0.1975000054,48.03162766,
0.1991666704,47.82972336,
0.2008333355,48.85604477,
0.2025000155,47.89302826,
0.2041666657,48.01567841,
0.2058333457,47.84309387,
0.2074999958,48.04062653,
0.2091666758,48.15827179,
0.2108333409,47.89059067,
0.212500006,47.67298126,
0.214166671,48.6263504,
0.2158333361,47.55921555,
0.2175000012,47.74730682,
0.2191666812,48.17913055,
0.2208333313,47.96539307,
0.2225000113,48.26919174,
0.2241666615,48.19578552,
0.2258333415,48.18897247,
0.2275000066,48.11560822,
0.2291666716,48.23174667,
0.2308333367,48.02833557,
0.2325000018,48.03284073,
0.2341666669,48.02240753,
0.2358333468,47.82521057,
0.237499997,48.38719559,
0.239166677,48.00629425,
0.2408333272,47.77780533,
0.2425000072,47.66827393,
0.2441666722,47.54070663,
0.2458333373,48.33239746,
0.2475000024,48.00053406,
0.2491666675,47.60745239,
0.2508333325,48.367939,
0.2524999976,48.26876831,
0.2541666627,47.68613434,
0.2558333278,48.415802,
0.2574999928,47.65673065,
0.2591666579,47.66758347,
0.2608333528,48.81451416,
0.2624999881,48.44328308,
0.264166683,48.78640747,
0.2658333182,48.11579514,
0.2675000131,48.04214478,
0.2691666484,48.48792648,
0.2708333433,48.83090591,
0.2725000083,47.70589066,
0.2741666734,48.54434967,
0.2758333385,48.06241989,
0.2775000036,47.41287231,
0.2791666687,47.65998077,
0.2808333337,47.03604126,
0.2824999988,47.81695938,
0.2841666937,48.25157547,
0.285833329,47.92936325,
0.287499994,47.75154877,
0.2891666591,47.80270386,
0.290833354,48.41450882,
0.2925000191,48.80337906,
0.2941666543,48.42974472,
0.2958333194,49.08447266,
0.2975000143,48.09792709,
0.2991666794,48.009655,
0.3008333445,48.05405045,
0.3024999797,48.32519913,
0.3041666746,48.08542252,
0.3058333397,48.28270721,
0.3075000048,47.51702499,
0.3091666996,47.97761154,
0.3108333349,47.3932457,
0.3125,48.07509613,
0.3141666651,48.07827759,
0.31583336,48.51981735,
0.317500025,48.25709534,
0.3191666603,48.20217133,
0.3208333254,47.98806,
0.3225000203,47.76447296,
0.3241666853,48.54162598,
0.3258333504,47.9022522,
0.3274999857,48.29127502,
0.3291666806,48.22502136,
0.3308333457,48.13486862,
0.3325000107,47.9204483,
0.3341666758,48.08649826,
0.3358333409,47.8603096,
0.337500006,48.19429398,
0.339166671,47.67152023,
0.3408333361,48.44595337,
0.342500031,48.26296997,
0.3441666663,47.86828995,
0.3458333313,48.19072723,
0.3474999964,48.29076385,
0.3491666913,47.86256027,
0.3508333564,47.63175964,
0.3524999917,47.87480545,
0.3541666567,48.29052734,
0.3558333516,48.40937424,
0.3575000167,47.78855515,
0.3591666818,47.54154205,
0.360833317,47.76940918,
0.3625000119,47.75934982,
0.364166677,48.05652618,
0.3658333421,47.56715775,
0.3675000072,48.32057571,
0.3691666722,47.97489166,
0.3708333373,47.7971611,
0.3725000024,47.90294647,
0.3741666675,48.59921265,
0.3758333623,47.86584091,
0.3774999976,48.21777725,
0.3791666627,47.92401886,
0.3808333278,48.24453735,
0.3825000226,48.3048172,
0.3841666877,48.17438507,
0.385833323,48.15178299,
0.3874999881,47.90463257,
0.389166683,48.02636719,
0.390833348,47.60399246,
0.3925000131,48.25663757,
0.3941666484,48.0655365,
0.3958333433,48.1881218,
0.3975000083,48.24427414,
0.3991666734,47.94215012,
0.4008333385,48.05813217,
0.4025000036,48.53628922,
0.4041666687,46.9936409,
0.4058333337,47.80080414,
0.4074999988,48.15199661,
0.4091666937,47.49337387,
0.410833329,48.32720947,
0.412499994,48.13608932,
0.4141666591,47.78656006,
0.415833354,48.38199615,
0.4175000191,48.47923279,
0.4191666543,47.65011597,
0.4208333194,47.40090179,
0.4225000143,48.51163101,
0.4241666794,48.03047943,
0.4258333445,48.1227417,
0.4274999797,48.02744293,
0.4291666746,47.88730621,
0.4308333397,47.91308975,
0.4325000048,48.00576019,
0.4341666996,47.96820831,
0.4358333349,47.98376465,
0.4375,48.66798782,
0.4391666651,48.51428223,
0.44083336,48.2931633,
0.442500025,47.57268906,
0.4441666603,47.49398804,
0.4458333254,48.841362,
0.4475000203,47.19226456,
0.4491666853,47.5634346,
0.4508333504,48.5168457,
0.4524999857,48.49189758,
0.4541666806,47.56806564,
0.4558333457,47.5711174,
0.4575000107,47.81992722,
0.4591666758,48.50503922,
0.4608333409,48.03937912,
0.462500006,47.86755371,
0.464166671,48.20972824,
0.4658333361,48.47100067,
0.467500031,47.68740845,
0.4691666663,48.03272247,
0.4708333313,48.1969986,
0.4724999964,48.32969284,
0.4741666913,48.34705734,
0.4758333564,48.22633362,
0.4774999917,47.61120224,
0.4791666567,48.14002991,
0.4808333516,48.37394714,
0.4825000167,48.6782074,
0.4841666818,47.51781845,
0.485833317,48.57762527,
0.4875000119,48.01436996,
0.489166677,47.48523331,
0.4908333421,48.16340637,
0.4925000072,47.73586273,
0.4941666722,48.69313812,
0.4958333373,47.73796463,
0.4975000024,47.60435867,
0.4991666675,47.32997513,
0.5008333325,48.36207581,
0.5024999976,47.7603569,
0.5041666627,47.96204376,
0.5058333278,47.98987579,
0.5074999928,47.68134308,
0.5091666579,48.61808777,
0.510833323,47.82056808,
0.5124999881,48.45724106,
0.5141666532,48.44120407,
0.5158333182,48.00245285,
0.5175000429,48.20428085,
0.5191666484,48.00246811,
0.5208333135,48.28944397,
0.5224999785,47.83029938,
0.5241667032,47.61314392,
0.5258333683,47.84527969,
0.5274999738,47.9977951,
0.5291666389,48.14203644,
0.5308333635,47.67375946,
0.5325000286,47.87708282,
0.5341666341,47.74534225,
0.5358333588,47.62223053,
0.5375000238,47.64424896,
0.5391666889,47.98126602,
0.540833354,48.27050781,
0.5424999595,48.64052582,
0.5441666842,47.35881042,
0.5458333492,47.67282486,
0.5475000143,47.62108612,
0.5491666794,47.84902573,
0.5508333445,48.42139816,
0.5525000095,48.25871277,
0.5541666746,48.36749268,
0.5558333993,48.04135895,
0.5575000048,48.46534348,
0.5591666698,47.60912704,
0.5608333349,47.82877731,
0.5625,47.53070831,
0.5641667247,47.78866196,
0.5658333302,47.82765198,
0.5674999952,48.17155457,
0.5691667199,48.20926666,
0.5708333254,48.20709229,
0.5725000501,48.5707016,
0.5741666555,48.12080002,
0.5758333206,47.36079788,
0.5775000453,48.48160934,
0.5791666508,48.22775269,
0.5808333755,48.12240982,
0.5825000405,48.02584076,
0.584166646,48.26247787,
0.5858333707,48.38401794,
0.5874999762,48.51680756,
0.5891667008,49.04458237,
0.5908333659,47.51234055,
0.5924999714,48.08911896,
0.5941666961,47.75431061,
0.5958333611,48.12332916,
0.5975000262,48.39254379,
0.5991666913,48.7309761,
0.6008332968,47.77511597,
0.6025000215,47.93612671,
0.6041666865,48.30986404,
0.6058333516,47.74261475,
0.6075000167,47.85795975,
0.6091666818,47.55122375,
0.6108333468,47.50164413,
0.6125000119,47.96118164,
0.614166677,48.51151657,
0.6158333421,47.95798492,
0.6175000072,47.92663574,
0.6191666722,47.83179092,
0.6208333373,48.43341064,
0.622500062,48.44364929,
0.6241666675,48.12615585,
0.6258333325,48.49793625,
0.6274999976,47.61004639,
0.6291666627,48.30002594,
0.6308333874,47.34420395,
0.6324999928,47.77849197,
0.6341666579,48.11101913,
0.6358333826,48.48603821,
0.6374999881,47.8911171,
0.6391667128,48.32481003,
0.6408333182,47.43175125,
0.6424999833,48.29722595,
0.644166708,47.94009399,
0.6458333135,48.57701111,
0.6475000381,48.80038834,
0.6491667032,48.48617935,
0.6508333087,47.89215469,
0.6525000334,48.32477188,
0.6541666389,47.85961914,
0.6558333635,48.14084625,
0.6575000286,48.25869751,
0.6591666341,48.15660477,
0.6608333588,48.12602997,
0.6625000238,47.76797104,
0.6641666889,48.42626953,
0.665833354,47.63220978,
0.6674999595,48.68435669,
0.6691666842,48.00515747,
0.6708333492,48.20556259,
0.6725000143,48.30920792,
0.6741666794,47.60786819,
0.6758333445,47.98605728,
0.6775000095,47.64175034,
0.6791666746,48.23682404,
0.6808333993,47.70833588,
0.6825000048,48.41493607,
0.6841666698,47.97853851,
0.6858333349,48.14500809,
0.6875,47.53879929,
0.6891667247,48.20371628,
0.6908333302,47.86296082,
0.6924999952,48.4892807,
0.6941667199,47.84662247,
0.6958333254,48.00380707,
0.6975000501,47.95074081,
0.6991666555,48.03528976,
0.7008333206,48.14798737,
0.7025000453,47.90166855,
0.7041666508,47.63294983,
0.7058333755,48.157547,
0.7075000405,48.22731018,
0.709166646,47.93688965,
0.7108333707,48.07323074,
0.7124999762,47.37647247,
0.7141667008,47.9161911,
0.7158333659,48.70563889,
0.7174999714,47.80512238,
0.7191666961,48.5847435,
0.7208333611,47.93813324,
0.7225000262,47.33088684,
0.7241666913,48.0517807,
0.7258332968,48.72383881,
0.7275000215,48.36847305,
0.7291666865,47.85416412,
0.7308333516,47.56389236,
0.7325000167,48.92683411,
0.7341666818,48.10641861,
0.7358333468,47.92615509,
0.7375000119,48.09092331,
0.739166677,48.40332031,
0.7408333421,48.20486832,
0.7425000072,48.28523254,
0.7441666722,48.67388153,
0.7458333373,48.50713348,
0.747500062,48.12758255,
0.7491666675,47.85232925,
0.7508333325,48.69044495,
0.7524999976,48.79951096,
0.7541666627,48.44419098,
0.7558333874,47.86698532,
0.7574999928,48.20038986,
0.7591666579,47.66185379,
0.7608333826,48.2696228,
0.7624999881,47.95855331,
0.7641667128,48.10942841,
0.7658333182,48.02350235,
0.7674999833,48.30945587,
0.769166708,48.13499832,
0.7708333135,48.39030838,
0.7725000381,47.3083992,
0.7741667032,48.32606506,
0.7758333087,47.61904907,
0.7775000334,48.35290527,
0.7791666389,47.82128906,
0.7808333635,47.89795303,
0.7825000286,47.73460007,
0.7841666341,48.38879395,
0.7858333588,47.61724472,
0.7875000238,48.65763092,
0.7891666889,47.40410614,
0.790833354,47.80273819,
0.7924999595,47.91589737,
0.7941666842,48.36290741,
0.7958333492,47.91818619,
0.7975000143,47.65950775,
0.7991666794,47.82149887,
0.8008333445,47.7637291,
0.8025000095,48.13159561,
0.8041666746,48.22718048,
0.8058333993,48.13487625,
0.8075000048,47.78209305,
0.8091666698,48.17963028,
0.8108333349,48.28787994,
0.8125,48.01626205,
0.8141667247,48.10530472,
0.8158333302,48.20169449,
0.8174999952,48.58088684,
0.8191667199,47.74236679,
0.8208333254,48.08822632,
0.8225000501,48.05306244,
0.8241666555,47.98226929,
0.8258333206,47.54612732,
0.8275000453,47.84883499,
0.8291666508,47.73586655,
0.8308333755,47.67873383,
0.8325000405,47.7708168,
0.834166646,48.43070984,
0.8358333707,47.76277542,
0.8374999762,48.43868256,
0.8391667008,48.10623169,
0.8408333659,47.86256027,
0.8424999714,48.18709564,
0.8441666961,47.76332474,
0.8458333611,48.13274002,
0.8475000262,47.83317566,
0.8491666913,47.95682144,
0.8508332968,48.14066315,
0.8525000215,47.17476654,
0.8541666865,48.04439926,
0.8558333516,47.35279846,
0.8575000167,48.84652328,
0.8591666818,48.2698555,
0.8608333468,47.75289536,
0.8625000119,48.65565491,
0.864166677,48.2401886,
0.8658333421,47.34841537,
0.8675000072,47.79583359,
0.8691666722,48.15929794,
0.8708333373,47.89517593,
0.872500062,48.14219666,
0.8741666675,48.0789566,
0.8758333325,48.57834244,
0.8774999976,47.51609421,
0.8791666627,48.38840103,
0.8808333874,48.51810074,
0.8824999928,47.83693695,
0.8841666579,48.1808815,
0.8858333826,47.31430817,
0.8874999881,47.93022919,
0.8891667128,47.98212051,
0.8908333182,48.22962952,
0.8924999833,47.70522308,
0.894166708,48.06219482,
0.8958333135,47.83620453,
0.8975000381,48.36233902,
0.8991667032,48.11251831,
0.9008333087,48.280159,
0.9025000334,47.91733551,
0.9041666389,47.8731308,
0.9058333635,48.03267288,
0.9075000286,48.96248245,
0.9091666341,48.1426239,
0.9108333588,47.86791229,
0.9125000238,47.98576355,
0.9141666889,48.30179214,
0.915833354,48.7681694,
0.9174999595,47.87747574,
0.9191666842,47.93581772,
0.9208333492,47.51572418,
0.9225000143,47.80593872,
0.9241666794,47.99734116,
0.9258333445,48.37206268,
0.9275000095,48.05040741,
0.9291666746,48.1429863,
0.9308333993,48.66348267,
0.9325000048,47.51027298,
0.9341666698,47.61501312,
0.9358333349,48.54553604,
0.9375,47.81263733,
0.9391667247,48.29368591,
0.9408333302,47.82646179,
0.9424999952,48.50333023,
0.9441667199,48.26956177,
0.9458333254,47.90301895,
0.9475000501,48.56977844,
0.9491666555,48.6307869,
0.9508333206,47.71790695,
0.9525000453,47.90286636,
0.9541666508,47.75635529,
0.9558333755,48.78857803,
0.9575000405,48.68871307,
0.959166646,48.26940536,
0.9608333707,48.74306107,
0.9624999762,47.780159,
0.9641667008,49.18188477,
0.9658333659,47.89975739,
0.9674999714,48.08985519,
0.9691666961,47.76634216,
0.9708333611,47.65051651,
0.9725000262,48.07210159,
0.9741666913,48.11218262,
0.9758332968,47.98900604,
0.9775000215,48.25204849,
0.9791666865,47.84115982,
0.9808333516,47.44898987,
0.9825000167,47.984478,
0.9841666818,48.51550674,
0.9858333468,48.76100159,
0.9875000119,48.35577774,
0.989166677,48.289814,
0.9908333421,47.45313263,
0.9925000072,48.44446945,
0.9941666722,48.22025299,
0.9958333373,48.30042267,
0.997500062,47.49481964,
0.9991666675,48.13741684,
1.000833273,48.02336502,
1.002500057,48.54657364,
1.004166722,47.82690048,
1.005833387,47.63474655,
1.007500052,48.40704346,
1.009166598,48.40350342,
1.010833383,47.88358688,
1.012500048,47.32515335,
1.014166713,47.9118309,
1.015833378,48.17530823,
1.017500043,48.10419846,
1.019166708,48.32285309,
1.020833373,48.10163116,
1.022500038,48.03151703,
1.024166703,48.04088974,
1.025833368,47.95882034,
1.027500033,47.87426376,
1.029166698,47.59814835,
1.030833364,47.5197258,
1.032500029,47.97286606,
1.034166694,48.23495865,
1.035833359,48.04862976,
1.037500024,48.29756165,
1.039166689,47.50781631,
1.040833354,48.45461273,
1.042500019,47.38578033,
1.044166684,47.77371979,
1.045833349,47.9070015,
1.047500014,48.32475662,
1.049166679,48.19963074,
1.050833344,47.69147491,
1.05250001,48.08135605,
1.054166675,47.51786041,
1.05583334,47.41913605,
1.057500005,47.08889771,
1.05916667,47.9122963,
1.060833335,48.01955414,
1.0625,47.39273453,
1.064166665,48.17401123,
1.06583333,48.34739304,
1.067499995,47.82339096,
1.06916666,48.54445648,
1.070833325,48.57855606,
1.07249999,48.19805527,
1.074166775,48.56721497,
1.07583344,47.8222847,
1.077499986,48.24775696,
1.079166651,48.06155777,
1.080833316,48.36860657,
1.0825001,47.81598663,
1.084166765,47.57188416,
1.085833311,47.63331223,
1.087499976,48.19203949,
1.089166641,47.61875534,
1.090833426,47.90256119,
1.092500091,47.84879684,
1.094166636,47.84790421,
1.095833302,48.13080215,
1.097499967,48.02854919,
1.099166751,48.19702911,
1.100833416,47.74913406,
1.102500081,47.47211838,
1.104166627,47.88929749,
1.105833292,47.74193573,
1.107500076,47.8180275,
1.109166741,48.18301773,
1.110833406,48.23314285,
1.112499952,47.9213829,
1.114166617,48.27716064,
1.115833402,48.1473999,
1.117500067,48.42782211,
1.119166732,48.17272568,
1.120833278,48.49160385,
1.122499943,47.59578705,
1.124166727,48.36421585,
1.125833392,48.59275055,
1.127500057,47.9533577,
1.129166722,47.50328064,
1.130833268,47.87807465,
1.132500052,48.60922241,
1.134166718,47.57455826,
1.135833383,47.59382629,
1.137500048,47.53921509,
1.139166594,48.12498093,
1.140833378,47.91513062,
1.142500043,47.59006119,
1.144166708,48.14392853,
1.145833373,47.711586,
1.147499919,48.79382706,
1.149166703,47.96974945,
1.150833368,48.56214905,
1.152500033,47.71802521,
1.154166698,48.14306259,
1.155833364,48.10325623,
1.157500029,47.9077301,
1.159166694,47.57888794,
1.160833359,48.36087799,
1.162500024,48.49924088,
1.164166689,47.85111237,
1.165833354,47.94213867,
1.167500019,48.4321785,
1.169166684,45.20458603,
1.170833349,45.66930389,
1.172500014,49.29011154,
1.174166799,56.18785095,
1.175833344,52.838974,
1.17750001,71.93871307,
1.179166675,72.70270538,
1.18083334,74.43777466,
1.182500124,86.66979218,
1.18416667,93.14199066,
1.185833335,96.60071564,
1.1875,101.2803726,
1.189166665,111.6128464,
1.190833449,109.8278503,
1.192499995,111.6219406,
1.19416666,114.9875031,
1.195833325,117.1907959,
1.19749999,120.979599,
1.199166775,123.9190445,
1.20083344,126.3740692,
1.202499986,129.6628265,
1.204166651,131.2704163,
1.205833316,134.7288818,
1.2075001,136.3311157,
1.209166765,138.5348663,
1.210833311,139.0944519,
1.212499976,141.6746979,
1.214166641,144.5267944,
1.215833426,146.2596741,
1.217500091,147.1081543,
1.219166636,148.7638245,
1.220833302,149.8312683,
1.222499967,151.6400604,
1.224166751,153.6542511,
1.225833416,154.3709717,
1.227500081,155.8112335,
1.229166627,157.3927917,
1.230833292,157.8682556,
1.232500076,159.6190338,
1.234166741,161.4212799,
1.235833406,162.4484253,
1.237499952,162.6915131,
1.239166617,163.576889,
1.240833402,163.9066467,
1.242500067,165.2332764,
1.244166732,166.3987122,
1.245833278,168.0415802,
1.247499943,168.5140076,
1.249166727,168.9309845,
1.250833392,169.840683,
1.252500057,170.2897186,
1.254166722,170.9450836,
1.255833268,172.0583038,
1.257500052,173.7208862,
1.259166718,173.8621521,
1.260833383,174.9232788,
1.262500048,174.8844604,
1.264166594,174.9746857,
1.265833378,176.436676,
1.267500043,176.769989,
1.269166708,176.5992584,
1.270833373,178.2888031,
1.272499919,180.0948792,
1.274166703,179.1090698,
1.275833368,179.9651489,
1.277500033,179.2378845,
1.279166698,180.3819122,
1.280833364,181.9252319,
1.282500029,181.7225189,
1.284166694,181.3536224,
1.285833359,182.7219696,
1.287500024,183.8484039,
1.289166689,183.5965118,
1.290833354,185.105957,
1.292500019,185.2115784,
1.294166684,184.8666077,
1.295833349,184.8159485,
1.297500014,184.0025787,
1.299166799,186.1623077,
1.300833344,186.8611298,
1.30250001,185.9057312,
1.304166675,187.7345734,
1.30583334,188.2915649,
1.307500124,187.5487518,
1.30916667,187.1802673,
1.310833335,189.0857391,
1.3125,188.5677948,
1.314166665,189.3764648,
1.315833449,190.5082855,
1.317499995,189.9518585,
1.31916666,191.2566528,
1.320833325,189.5545349,
1.32249999,190.9849548,
1.324166775,191.4487305,
1.32583344,190.5969238,
1.327499986,191.4651489,
1.329166651,191.302887,
1.330833316,193.0251923,
1.3325001,192.1193085,
1.334166765,192.2305908,
1.335833311,193.1549072,
1.337499976,194.3658447,
1.339166641,194.6117554,
1.340833426,194.9869995,
1.342500091,193.8660583,
1.344166636,194.9358978,
1.345833302,194.0548553,
1.347499967,194.9644165,
1.349166751,194.8875732,
1.350833416,195.6859283,
1.352500081,195.5925293,
1.354166627,195.4424438,
1.355833292,195.8019562,
1.357500076,195.7866669,
1.359166741,196.0778351,
1.360833406,195.7703705,
1.362499952,196.2664948,
1.364166617,195.2404175,
1.365833402,196.5667419,
1.367500067,197.6964417,
1.369166732,196.8022614,
1.370833278,197.6995544,
1.372499943,196.9943542,
1.374166727,197.9191132,
1.375833392,198.3112183,
1.377500057,198.9804535,
1.379166722,198.4431915,
1.380833268,198.2437592,
1.382500052,198.1309814,
1.384166718,198.9484253,
1.385833383,197.8353882,
1.387500048,199.5839539,
1.389166594,198.8214569,
1.390833378,200.535675,
1.392500043,199.2181091,
1.394166708,199.9383698,
1.395833373,200.3253174,
1.397499919,200.5329437,
1.399166703,200.9668579,
1.400833368,201.8458557,
1.402500033,199.7277985,
1.404166698,201.1144867,
1.405833364,202.9412231,
1.407500029,202.5830994,
1.409166694,202.3017883,
1.410833359,203.0912018,
1.412500024,201.5473938,
1.414166689,201.2205505,
1.415833354,200.58638,
1.417500019,201.4586182,
1.419166684,202.0386505,
1.420833349,203.0302429,
1.422500014,202.4409485,
1.424166799,201.2976685,
1.425833344,202.2615967,
1.42750001,203.2463989,
1.429166675,203.1781464,
1.43083334,202.6778107,
1.432500124,202.7964478,
1.43416667,202.4660339,
1.435833335,202.9028931,
1.4375,202.9021606,
1.439166665,204.3956146,
1.440833449,203.7410431,
1.442499995,203.6729126,
1.44416666,204.4941864,
1.445833325,205.1881256,
1.44749999,203.9434509,
1.449166775,204.5682068,
1.45083344,204.0970764,
1.452499986,203.7365417,
1.454166651,204.2005615,
1.455833316,204.2805023,
1.4575001,204.4940796,
1.459166765,205.5579224,
1.460833311,205.661377,
1.462499976,205.3657532,
1.464166641,205.6589355,
1.465833426,204.7215576,
1.467500091,206.4800415,
1.469166636,205.0552826,
1.470833302,205.3023529,
1.472499967,205.220459,
1.474166751,205.3411102,
1.475833416,207.8237305,
1.477500081,205.0288239,
1.479166627,205.5133514,
1.480833292,205.2785797,
1.482500076,205.4776917,
1.484166741,207.6438446,
1.485833406,205.9518433,
1.487499952,206.3609161,
1.489166617,208.1538239,
1.490833402,207.1582642,
1.492500067,207.6805878,
1.494166732,207.1946411,
1.495833278,205.9967194,
1.497499943,206.0704956,
1.499166727,207.0223236,
1.500833392,206.7394714,
1.502500057,206.8871765,
1.504166722,208.1215668,
1.505833268,208.7110138,
1.507500052,206.4507446,
1.509166718,207.2444763,
1.510833383,206.2353973,
1.512500048,206.9077454,
1.514166594,207.6892395,
1.515833378,208.2883606,
1.517500043,208.0817566,
1.519166708,206.861908,
1.520833373,208.0675507,
1.522499919,207.3086243,
1.524166703,209.5941315,
1.525833368,207.5088806,
1.527500033,207.6234436,
1.529166698,208.3607178,
1.530833364,207.7953949,
1.532500029,209.3692932,
1.534166694,207.3781586,
1.535833359,208.8258667,
1.537500024,207.1705933,
1.539166689,208.1577759,
1.540833354,208.6087952,
1.542500019,208.2205048,
1.544166684,209.5693665,
1.545833349,208.7091827,
1.547500014,209.1940765,
1.549166799,208.2640533,
1.550833344,208.7342834,
1.55250001,208.5921326,
1.554166675,209.4815826,
1.55583334,208.9401245,
1.557500124,209.6232452,
1.55916667,208.3688049,
1.560833335,209.6575317,
1.5625,209.9121094,
1.564166665,209.2127686,
1.565833449,210.9066162,
1.567499995,208.5630646,
1.56916666,209.0095062,
1.570833325,208.4031219,
1.57249999,209.3030243,
1.574166775,209.565033,
1.57583344,210.2844849,
1.577499986,209.5974579,
1.579166651,208.4111176,
1.580833316,211.240921,
1.5825001,209.5007935,
1.584166765,210.6316833,
1.585833311,210.9000549,
1.587499976,209.8436432,
1.589166641,209.2471313,
1.590833426,210.5056,
1.592500091,209.9588318,
1.594166636,208.8275146,
1.595833302,211.2371216,
1.597499967,210.2639771,
1.599166751,210.6696777,
1.600833416,211.1851044,
1.602500081,211.5432281,
1.604166627,210.6834106,
1.605833292,209.4599915,
1.607500076,211.0600586,
1.609166741,208.4709625,
1.610833406,211.0680084,
1.612499952,210.0280762,
1.614166617,209.9963989,
1.615833402,210.9280243,
1.617500067,209.7561188,
1.619166732,211.706543,
1.620833278,210.5524445,
1.622499943,212.0085144,
1.624166727,211.0252686,
1.625833392,210.878418,
1.627500057,210.5549774,
1.629166722,213.3835754,
1.630833268,208.5677338,
1.632500052,209.594574,
1.634166718,211.9207001,
1.635833383,211.3402405,
1.637500048,211.8455658,
1.639166594,211.5392914,
1.640833378,209.8561707,
1.642500043,211.5510864,
1.644166708,211.0311279,
1.645833373,210.1578369,
1.647499919,211.3781891,
1.649166703,211.4216309,
1.650833368,212.685318,
1.652500033,211.6081848,
1.654166698,213.1403198,
1.655833364,210.2721863,
1.657500029,209.7553253,
1.659166694,211.9803925,
1.660833359,212.8363495,
1.662500024,211.4388428,
1.664166689,211.1122589,
1.665833354,211.5723877,
1.667500019,210.3672943,
1.669166684,212.4443817,
1.670833349,212.2336731,
1.672500014,210.9123077,
1.674166799,211.9147034,
1.675833344,212.2827911,
1.67750001,212.9456024,
1.679166675,212.4249268,
1.68083334,212.4080353,
1.682500124,212.8890381,
1.68416667,211.3265991,
1.685833335,212.8214111,
1.6875,213.388443,
1.689166665,211.7991028,
1.690833449,211.5323486,
1.692499995,212.5954437,
1.69416666,212.9685211,
1.695833325,212.4478607,
1.69749999,211.5818634,
1.699166775,213.0415039,
1.70083344,212.0069275,
1.702499986,212.4844971,
1.704166651,213.5621643,
1.705833316,212.0075226,
1.7075001,211.9531708,
1.709166765,212.7922058,
1.710833311,211.8999786,
1.712499976,211.0103912,
1.714166641,212.2409668,
1.715833426,213.3132477,
1.717500091,212.5662994,
1.719166636,211.335022,
1.720833302,213.1634674,
1.722499967,213.6204834,
1.724166751,211.2350464,
1.725833416,211.4079285,
1.727500081,213.1400757,
1.729166627,213.8174133,
1.730833292,212.5635376,
1.732500076,212.1415863,
1.734166741,213.3832703,
1.735833406,214.0655365,
1.737499952,211.9649811,
1.739166617,214.4688721,
1.740833402,214.0947418,
1.742500067,213.8123322,
1.744166732,212.2938385,
1.745833278,212.2277527,
1.747499943,212.7583618,
1.749166727,212.9529724,
1.750833392,211.5239258,
1.752500057,213.6490021,
1.754166722,212.9162445,
1.755833268,212.8003387,
1.757500052,212.5565643,
1.759166718,213.2773895,
1.760833383,212.8491516,
1.762500048,213.2033844,
1.764166594,213.3139496,
1.765833378,213.7840424,
1.767500043,212.5597076,
1.769166708,212.7440338,
1.770833373,212.6923523,
1.772499919,214.5981445,
1.774166703,213.3350983,
1.775833368,212.9714355,
1.777500033,212.4740143,
1.779166698,213.4288025,
1.780833364,212.9983521,
1.782500029,213.8525391,
1.784166694,213.6906738,
1.785833359,214.2457123,
1.787500024,213.5253143,
1.789166689,213.8283997,
1.790833354,214.1462555,
1.792500019,212.673584,
1.794166684,213.0223083,
1.795833349,212.9538727,
1.797500014,213.4363861,
1.799166799,214.6214752,
1.800833344,213.8133392,
1.80250001,213.3076935,
1.804166675,213.3329315,
1.80583334,214.4318542,
1.807500124,214.6945801,
1.80916667,213.5547943,
1.810833335,213.6369476,
1.8125,214.7113647,
1.814166665,214.6263885,
1.815833449,215.3760834,
1.817499995,214.40271,
1.81916666,213.0936737,
1.820833325,214.6854858,
1.82249999,213.6625214,
1.824166775,215.0237732,
1.82583344,213.8421783,
1.827499986,215.2537384,
1.829166651,214.9273224,
1.830833316,213.5837097,
1.8325001,213.1464691,
1.834166765,214.5031891,
1.835833311,213.3144073,
1.837499976,214.799942,
1.839166641,215.3028564,
1.840833426,215.3156128,
1.842500091,215.0414734,
1.844166636,214.5119781,
1.845833302,215.4111938,
1.847499967,215.2982025,
1.849166751,214.9880524,
1.850833416,213.5774841,
1.852500081,214.6997375,
1.854166627,215.0210571,
1.855833292,213.7709045,
1.857500076,213.8480377,
1.859166741,214.6766052,
1.860833406,214.7156372,
1.862499952,214.8120575,
1.864166617,214.3321075,
1.865833402,214.7784119,
1.867500067,215.4505005,
1.869166732,215.2885437,
1.870833278,214.3410492,
1.872499943,214.5052338,
1.874166727,215.1046906,
1.875833392,212.750473,
1.877500057,216.7315216,
1.879166722,216.8014221,
1.880833268,216.225296,
1.882500052,214.6936035,
1.884166718,216.0062561,
1.885833383,214.3876495,
1.887500048,214.5045471,
1.889166594,214.2629395,
1.890833378,215.417572,
1.892500043,215.5127411,
1.894166708,215.1470337,
1.895833373,213.9341431,
1.897499919,214.7998047,
1.899166703,214.7075043,
1.900833368,214.7004089,
1.902500033,214.2563324,
1.904166698,215.7759705,
1.905833364,216.1264343,
1.907500029,213.9764404,
1.909166694,215.5971527,
1.910833359,213.2577057,
1.912500024,215.9208069,
1.914166689,215.321228,
1.915833354,215.7016907,
1.917500019,215.7285767,
1.919166684,214.644455,
1.920833349,216.3188629,
1.922500014,216.8720551,
1.924166799,215.3453827,
1.925833344,216.9677734,
1.92750001,215.9460297,
1.929166675,216.2185669,
1.93083334,215.0220642,
1.932500124,217.2358704,
1.93416667,214.8082581,
1.935833335,215.2091675,
1.9375,216.1501465,
1.939166665,215.6324921,
1.940833449,214.9616852,
1.942499995,216.6476135,
1.94416666,215.5501556,
1.945833325,214.3709106,
1.94749999,215.088501,
1.949166775,214.7987213,
1.95083344,216.5944977,
1.952499986,216.9658813,
1.954166651,215.3696594,
1.955833316,214.4763031,
1.9575001,215.7339172,
1.959166765,217.088089,
1.960833311,215.4837952,
1.962499976,213.9832306,
1.964166641,215.7184601,
1.965833426,214.4667664,
1.967500091,216.2158966,
1.969166636,215.9611816,
1.970833302,215.6838989,
1.972499967,216.4223022,
1.974166751,214.898941,
1.975833416,215.8470612,
1.977500081,216.8082581,
1.979166627,215.2828522,
1.980833292,216.1855774,
1.982500076,215.0214539,
1.984166741,216.1241913,
1.985833406,218.116333,
1.987499952,214.069458,
1.989166617,215.2048187,
1.990833402,215.7733307,
1.992500067,216.2873688,
1.994166732,215.2204437,
1.995833278,215.4285736,
1.997499943,216.4657898,
1.999166727,214.1246338,
2.000833273,216.0227356,
2.002500057,217.0162354,
2.004166603,215.1416931,
2.005833387,216.653656,
2.007500172,215.3569336,
2.009166718,215.7001343,
2.010833263,215.2965393,
2.012500048,216.0210114,
2.014166594,214.7486267,
2.015833378,215.578476,
2.017500162,215.8482056,
2.019166708,215.1772308,
2.020833254,213.941452,
2.022500038,216.1716919,
2.024166822,214.861557,
2.025833368,215.2156067,
2.027499914,215.4083099,
2.029166698,215.923233,
2.030833244,215.6590271,
2.032500029,216.2568512,
2.034166813,215.80336,
2.035833359,216.1263428,
2.037499905,215.1733246,
2.039166689,216.4819794,
2.040833473,215.3209229,
2.042500019,215.1864777,
2.044166803,215.0848694,
2.045833349,215.3944397,
2.047499895,215.5378571,
2.049166679,216.2364044,
2.050833464,216.3449554,
2.05250001,213.8540344,
2.054166555,216.6261292,
2.05583334,216.0667419,
2.057500124,213.9326782,
2.05916667,215.8632202,
2.060833454,215.6262054,
2.0625,216.0218811,
2.064166546,215.7013702,
2.06583333,215.6307526,
2.067500114,216.9367371,
2.06916666,216.2725677,
2.070833445,216.2797089,
2.07249999,216.4141388,
2.074166775,216.0853577,
2.075833321,216.2759705,
2.077500105,215.0419922,
2.079166651,215.5270386,
2.080833197,215.1428375,
2.082499981,217.3912964,
2.084166765,215.6887665,
2.085833311,214.8529663,
2.087500095,216.7790222,
2.089166641,217.2149048,
2.090833426,217.9293823,
2.092499971,216.4509277,
2.094166756,215.3037109,
2.095833302,216.1120453,
2.097500086,216.0953522,
2.099166632,214.2895355,
2.100833416,217.1964264,
2.102499962,217.0703888,
2.104166746,215.2931671,
2.105833292,215.4465637,
2.107500076,216.4693604,
2.109166622,217.5525208,
2.110833406,217.332962,
2.112499952,216.3983459,
2.114166737,215.2029724,
2.115833521,216.6858215,
2.117500067,215.815506,
2.119166613,216.0801849,
2.120833397,216.3496246,
2.122499943,215.8911591,
2.124166727,217.8577576,
2.125833273,216.2106018,
2.127500057,216.5517883,
2.129166603,216.1364288,
2.130833387,215.331131,
2.132500172,217.8418732,
2.134166718,216.767395,
2.135833502,217.5720062,
2.137500048,216.0868378,
2.139166832,217.4502258,
2.140833378,216.6214447,
2.142500162,217.3277893,
2.144166708,217.3432465,
2.145833254,216.8077087,
2.147500038,215.5511932,
2.149166584,216.6977692,
2.150833368,216.5768738,
2.152500153,217.6218414,
2.154166698,217.4662933,
2.155833483,215.4708862,
2.157500029,216.6357269,
2.159166813,216.6717224,
2.160833597,217.1035004,
2.162499905,216.6221313,
2.164166689,216.7131805,
2.165833235,216.4477081,
2.167500019,216.3954773,
2.169166803,217.3744965,
2.170833349,216.7264404,
2.172500134,217.481781,
2.174166679,216.7154999,
2.175833464,216.978302,
2.177500248,217.3474579,
2.179166555,217.5258026,
2.18083334,215.5798187,
2.182499886,215.4625854,
2.18416667,216.9618225,
2.185833454,216.8812256,
2.1875,217.5111542,
2.189166784,216.2371979,
2.19083333,215.2885284,
2.192500114,217.0475616,
2.194166899,215.97966,
2.195833445,217.0697479,
2.19749999,216.398819,
2.199166536,216.6712494,
2.200833321,215.7439575,
2.202500105,217.1046143,
2.204166651,217.199646,
2.205833435,216.5679016,
2.207499981,217.7025452,
2.209166765,215.7430115,
2.210833549,218.1833801,
2.212500095,217.1798553,
2.21416688,216.6746521,
2.215833187,217.8821869,
2.217499971,216.855545,
2.219166756,217.6580505,
2.220833302,216.3677521,
2.222500086,216.7743378,
2.224166632,216.179657,
2.225833416,216.961853,
2.2275002,216.2021484,
2.229166746,217.8641052,
2.23083353,217.4875641,
2.232499838,217.6096039,
2.234166622,215.7454224,
2.235833406,216.5796967,
2.237499952,218.6917114,
2.239166737,218.1610413,
2.240833282,216.3337097,
2.242500067,218.078598,
2.244166851,218.0013733,
2.245833397,217.3683929,
2.247500181,217.315567,
2.249166727,217.0823364,
2.250833273,218.4040375,
2.252500057,217.0274353,
2.254166603,216.6399384,
2.255833387,217.8070831,
2.257499933,217.3050537,
2.259166718,217.463501,
2.260833502,218.9658966,
2.262500048,216.1196289,
2.264166832,217.4182281,
2.265833378,217.7159271,
2.267500162,217.9908447,
2.269166708,219.0040283,
2.270833254,217.2201843,
2.272500038,217.741394,
2.274166584,218.2985229,
2.275833368,218.1969299,
2.277500153,217.4488068,
2.279166698,219.3956299,
2.280833483,217.2174072,
2.282500029,217.2952881,
2.284166813,217.4316406,
2.285833597,217.5908203,
2.287499905,217.6074524,
2.289166689,217.0829468,
2.290833235,218.4719543,
2.292500019,217.0818024,
2.294166803,216.1938477,
2.295833349,217.1066132,
2.297500134,217.4309998,
2.299166679,219.130722,
2.300833464,217.1621704,
2.302500248,218.0784302,
2.304166555,217.1405029,
2.30583334,217.4313507,
2.307499886,216.5087585,
2.30916667,217.4813995,
2.310833454,219.1561279,
2.3125,217.3993835,
2.314166784,218.1979828,
2.31583333,218.4301605,
2.317500114,216.3067932,
2.319166899,217.4976196,
2.320833445,216.3956757,
2.32249999,217.4559174,
2.324166536,218.26651,
2.325833321,216.1832733,
2.327500105,219.2648926,
2.329166651,217.6866608,
2.330833435,216.2695923,
2.332499981,217.4568787,
2.334166765,217.5208282,
2.335833549,217.1570435,
2.337500095,217.7404938,
2.33916688,217.1978455,
2.340833187,218.2117767,
2.342499971,217.6011658,
2.344166756,216.9088593,
2.345833302,217.9789886,
2.347500086,217.4949188,
2.349166632,219.1006775,
2.350833416,214.931488,
2.3525002,219.1938629,
2.354166746,217.9184113,
2.35583353,217.6343231,
2.357499838,218.8684387,
2.359166622,218.3927917,
2.360833406,216.1465149,
2.362499952,217.8728333,
2.364166737,217.759613,
2.365833282,217.2452393,
2.367500067,217.4238281,
2.369166851,217.7774506,
2.370833397,217.857666,
2.372500181,217.6213989,
2.374166727,217.9351807,
2.375833273,218.2877045,
2.377500057,218.2027435,
2.379166603,217.3035278,
2.380833387,217.7739716,
2.382499933,217.8436432,
2.384166718,217.8079987,
2.385833502,218.7294617,
2.387500048,218.9276581,
2.389166832,218.7655792,
2.390833378,216.3135223,
2.392500162,217.3230743,
2.394166708,218.253891,
2.395833254,217.7310638,
2.397500038,218.1725006,
2.399166584,218.0537872,
2.400833368,217.1214905,
2.402500153,218.7695007,
2.404166698,218.6929016,
2.405833483,216.9568176,
2.407500029,217.7564697,
2.409166813,218.9507446,
2.410833597,219.7166901,
2.412499905,217.4539032,
2.414166689,217.7914734,
2.415833235,217.6506805,
2.417500019,217.2508698,
2.419166803,218.9418488,
2.420833349,217.7041473,
2.422500134,217.2954712,
2.424166679,217.6933746,
2.425833464,219.0906982,
2.427500248,217.99823,
2.429166555,217.7627716,
2.43083334,219.7133484,
2.432499886,218.9356232,
2.43416667,218.5980072,
2.435833454,217.0859985,
2.4375,218.1772919,
2.439166784,218.308136,
2.44083333,218.9255524,
2.442500114,219.8134155,
2.444166899,218.1390381,
2.445833445,218.1449738,
2.44749999,218.8065186,
2.449166536,217.8460388,
2.450833321,218.1456299,
2.452500105,218.4798279,
2.454166651,218.0015106,
2.455833435,217.750473,
2.457499981,216.4485626,
2.459166765,219.0672913,
2.460833549,216.8923798,
2.462500095,217.8314972,
2.46416688,219.311264,
2.465833187,217.3106384,
2.467499971,217.8994446,
2.469166756,219.9408264,
2.470833302,218.4465942,
2.472500086,217.1475525,
2.474166632,218.4219055,
2.475833416,218.579895,
2.4775002,219.2856445,
2.479166746,218.9055634,
2.48083353,217.6099396,
2.482499838,217.7740021,
2.484166622,219.1918488,
2.485833406,218.0244751,
2.487499952,218.7610626,
2.489166737,218.4359283,
2.490833282,220.0109406,
2.492500067,217.9876556,
2.494166851,219.2283478,
2.495833397,218.3412933,
2.497500181,218.98909,
2.499166727,216.8201294,
2.500833273,218.258194,
2.502500057,217.0781708,
2.504166603,218.6791382,
2.505833387,219.6401367,
2.507499933,216.6707611,
2.509166718,219.2706146,
2.510833502,218.493927,
2.512500048,218.7286682,
2.514166832,217.6631317,
2.515833378,218.4957123,
2.517500162,218.5741272,
2.519166708,217.9813843,
2.520833254,218.4228668,
2.522500038,217.689621,
2.524166584,217.1676331,
2.525833368,218.339859,
2.527500153,219.3534241,
2.529166698,218.701828,
2.530833483,219.4776001,
2.532500029,218.2627411,
2.534166813,217.450531,
2.535833597,217.8725281,
2.537499905,217.6870728,
2.539166689,218.3853607,
2.540833235,218.911499,
2.542500019,217.8610077,
2.544166803,218.0367432,
2.545833349,218.60466,
2.547500134,216.2792969,
2.549166679,218.9029236,
2.550833464,218.3135376,
2.552500248,218.9732513,
2.554166555,218.3468781,
2.55583334,218.8113556,
2.557499886,217.6573639,
2.55916667,218.4811554,
2.560833454,217.2742615,
2.5625,218.0787506,
2.564166784,218.3987122,
2.56583333,219.9634552,
2.567500114,217.850296,
2.569166899,218.8497467,
2.570833445,218.4942017,
2.57249999,219.3803864,
2.574166536,218.9472351,
2.575833321,218.2276306,
2.577500105,219.7268372,
2.579166651,217.0679932,
2.580833435,217.8076935,
2.582499981,219.7976685,
2.584166765,217.9481659,
2.585833549,218.0971375,
2.587500095,218.533783,
2.58916688,217.7238464,
2.590833187,218.5129852,
2.592499971,219.0117645,
2.594166756,219.1904755,
2.595833302,219.084671,
2.597500086,219.0975494,
2.599166632,218.3360596,
2.600833416,218.4793243,
2.6025002,219.2819366,
2.604166746,218.0032959,
2.60583353,216.8395691,
2.607499838,218.2447815,
2.609166622,218.8738861,
2.610833406,218.9580231,
2.612499952,217.3193054,
2.614166737,219.1632233,
2.615833282,219.529953,
2.617500067,217.701889,
2.619166851,219.2743225,
2.620833397,218.255188,
2.622500181,219.3148193,
2.624166727,217.9945068,
2.625833273,218.848526,
2.627500057,218.6723938,
2.629166603,219.3476715,
2.630833387,218.9478149,
2.632499933,218.8489685,
2.634166718,219.9503784,
2.635833502,219.5002136,
2.637500048,218.4062042,
2.639166832,219.1852417,
2.640833378,219.7930908,
2.642500162,218.9005585,
2.644166708,218.5993347,
2.645833254,218.544693,
2.647500038,217.6656647,
2.649166584,219.3292389,
2.650833368,220.1848145,
2.652500153,218.4206848,
2.654166698,218.4844208,
2.655833483,218.3028107,
2.657500029,219.8791656,
2.659166813,219.1001129,
2.660833597,220.4901581,
2.662499905,219.4223633,
2.664166689,218.6765442,
2.665833235,218.3141327,
2.667500019,218.6430206,
2.669166803,217.7337799,
2.670833349,219.5375824,
2.672500134,217.6988068,
2.674166679,220.3150787,
2.675833464,219.7249298,
2.677500248,217.8956757,
2.679166555,217.3137817,
2.68083334,218.5872192,
2.682499886,218.7084198,
2.68416667,218.6402893,
2.685833454,218.7311401,
2.6875,218.7060547,
2.689166784,219.2581482,
2.69083333,217.6241302,
2.692500114,221.5667877,
2.694166899,218.5515594,
2.695833445,220.6817169,
2.69749999,219.4758911,
2.699166536,219.1495972,
2.700833321,219.7345123,
2.702500105,219.1630402,
2.704166651,219.0059967,
2.705833435,217.85112,
2.707499981,217.9358063,
2.709166765,218.5727844,
2.710833549,219.9126434,
2.712500095,218.978714,
2.71416688,219.7122955,
2.715833187,219.9672852,
2.717499971,217.8292236,
2.719166756,218.8001099,
2.720833302,220.0625153,
2.722500086,218.9671173,
2.724166632,219.5095673,
2.725833416,217.8275146,
2.7275002,219.3696289,
2.729166746,219.4314575,
2.73083353,219.0697632,
2.732499838,218.3279572,
2.734166622,219.5462799,
2.735833406,219.3496704,
2.737499952,219.0323944,
2.739166737,219.7255402,
2.740833282,217.9932861,
2.742500067,220.1636505,
2.744166851,219.3185272,
2.745833397,218.6773224,
2.747500181,218.078064,
2.749166727,219.6904144,
2.750833273,219.3516693,
2.752500057,218.8063049,
2.754166603,220.09021,
2.755833387,219.6112213,
2.757499933,218.8434296,
2.759166718,219.2806854,
2.760833502,219.053894,
2.762500048,219.0907135,
2.764166832,218.73349,
2.765833378,219.0132751,
2.767500162,218.8569794,
2.769166708,219.1096802,
2.770833254,218.8354187,
2.772500038,219.4474945,
2.774166584,217.576828,
2.775833368,219.3756714,
2.777500153,219.3767853,
2.779166698,218.6244354,
2.780833483,219.2303314,
2.782500029,218.2052765,
2.784166813,220.158432,
2.785833597,217.5035095,
2.787499905,219.5714722,
2.789166689,219.6915131,
2.790833235,220.467514,
2.792500019,219.2546387,
2.794166803,219.4561462,
2.795833349,219.1652679,
2.797500134,219.9893036,
2.799166679,219.3591766,
2.800833464,218.9124451,
2.802500248,220.213623,
2.804166555,219.2057343,
2.80583334,220.3084412,
2.807499886,218.4495697,
2.80916667,220.4014587,
2.810833454,219.5098572,
2.8125,219.3662872,
2.814166784,218.4782562,
2.81583333,219.724472,
2.817500114,218.0207825,
2.819166899,218.8267517,
2.820833445,218.9671783,
2.82249999,219.4667511,
2.824166536,219.1681519,
2.825833321,218.5372772,
2.827500105,219.7757263,
2.829166651,219.4597168,
2.830833435,219.7665558,
2.832499981,218.7432556,
2.834166765,219.1991577,
2.835833549,219.4020386,
2.837500095,221.934967,
2.83916688,218.4965515,
2.840833187,220.1660461,
2.842499971,218.7385101,
2.844166756,219.9492493,
2.845833302,219.8911896,
2.847500086,218.749054,
2.849166632,219.918396,
2.850833416,218.2409973,
2.8525002,218.9230804,
2.854166746,218.6662598,
2.85583353,217.2416382,
2.857499838,219.7707825,
2.859166622,219.0481873,
2.860833406,220.449234,
2.862499952,219.6251526,
2.864166737,219.501297,
2.865833282,220.8875885,
2.867500067,219.5062103,
2.869166851,219.6659698,
2.870833397,219.6148834,
2.872500181,219.1989136,
2.874166727,220.5546875,
2.875833273,219.0726776,
2.877500057,219.6662292,
2.879166603,220.0685577,
2.880833387,218.4523468,
2.882499933,219.4305267,
2.884166718,217.6134644,
2.885833502,217.3029938,
2.887500048,219.5155945,
2.889166832,217.8933258,
2.890833378,220.5693665,
2.892500162,219.1024475,
2.894166708,220.9737244,
2.895833254,219.1712799,
2.897500038,218.7104645,
2.899166584,219.0868683,
2.900833368,218.8787537,
2.902500153,220.181839,
2.904166698,218.8648682,
2.905833483,218.6099854,
2.907500029,219.8051453,
2.909166813,218.0909424,
2.910833597,219.3429108,
2.912499905,219.1799622,
2.914166689,219.5264587,
2.915833235,219.1625366,
2.917500019,219.019455,
2.919166803,219.1901398,
2.920833349,218.5589447,
2.922500134,219.1881256,
2.924166679,218.7104034,
2.925833464,219.1690826,
2.927500248,219.3573303,
2.929166555,219.2783356,
2.93083334,219.0527039,
2.932499886,219.8766327,
2.93416667,219.0347595,
2.935833454,218.8136444,
2.9375,219.4272461,
2.939166784,220.125946,
2.94083333,220.0963593,
2.942500114,219.5998383,
2.944166899,219.8167419,
2.945833445,220.2060547,
2.94749999,218.4293518,
2.949166536,219.8804016,
2.950833321,219.8226471,
2.952500105,219.4526215,
2.954166651,217.6798096,
2.955833435,219.6439362,
2.957499981,219.5308685,
2.959166765,222.5091248,
2.960833549,219.7378693,
2.962500095,220.3428955,
2.96416688,219.4281464,
2.965833187,218.1565552,
2.967499971,218.8005219,
2.969166756,218.5358734,
2.970833302,220.3402252,
2.972500086,219.2022705,
2.974166632,219.0124817,
2.975833416,220.1835327,
2.9775002,219.8650818,
2.979166746,219.2187347,
2.98083353,219.0973816,
2.982499838,220.0280609,
2.984166622,220.7147522,
2.985833406,219.8039551,
2.987499952,219.4509735,
2.989166737,219.4987335,
2.990833282,219.3455811,
2.992500067,219.3639526,
2.994166851,218.1200562,
2.995833397,219.6226959,
2.997500181,220.0115356,
2.999166727,218.5639191,
3.000833273,219.6988525,
3.002500057,220.2636719,
3.004166603,219.2899475,
3.005833387,219.0940857,
3.007499933,220.373703,
3.009166718,219.2336426,
3.010833502,220.7798462,
3.012500048,219.73349,
3.014166832,220.4972534,
3.015833378,218.7879486,
3.017500162,220.737381,
3.019166708,220.0532837,
3.020833254,221.8305054,
3.022500038,220.9232178,
3.024166584,218.8102264,
3.025833368,221.071579,
3.027500153,218.8185577,
3.029166698,219.2610474,
3.030833483,219.5666504,
3.032500029,219.7918549,
3.034166813,219.3175049,
3.035833597,220.200531,
3.037499905,220.1742249,
3.039166689,220.2693634,
3.040833235,220.5317535,
3.042500019,219.7713776,
3.044166803,220.3791504,
3.045833349,218.5622406,
3.047500134,218.6255188,
3.049166679,220.2186127,
3.050833464,219.2697296,
3.052500248,220.8129883,
3.054166555,221.0932922,
3.05583334,220.0407562,
3.057499886,218.8127747,
3.05916667,220.4873352,
3.060833454,218.9338074,
3.0625,219.2439423,
3.064166784,220.387558,
3.06583333,220.2424927,
3.067500114,220.2496643,
3.069166899,220.1469269,
3.070833445,221.6147614,
3.07249999,218.6478424,
3.074166536,220.5983582,
3.075833321,219.3641205,
3.077500105,222.0827789,
3.079166651,219.9718475,

